# == pyFAI calibration ==
# Distance Sample to Detector: 0.3075 m
# PONI: 6.384e-02, 3.947e-02 m
# Rotations: 0.000000 0.000000 0.000000 rad
# 
# == Fit2d calibration ==
# Distance Sample-beamCenter: 307.500 mm
# Center: x=526.252, y=851.258 pix
# Tilt: 0.000 deg  TiltPlanRot: 0.000 deg
# 
# Detector Detector	 Spline= None	 PixelSize= 7.500e-05, 7.500e-05 m
#    Detector has a mask: False 
#    Detector has a dark current: False 
#    detector has a flat field: False 
# 
# Wavelength: 1.5406e-10 m
# Mask applied: provided
# Dark current applied: False
# Flat field applied: False
# Polarization factor: None
# Normalization factor: 1.0
# --> ./integrated_200bins.dat
#       q_nm^-1              I           sigma 
  2.565128e-02    2.258908e+05   7.780714e+01
  7.434948e-02    3.465355e+03   5.550261e+00
  1.230477e-01    1.176888e+01   2.503707e-01
  1.717459e-01    1.105509e+00   6.483217e-02
  2.204441e-01    1.078506e-01   1.785310e-02
  2.691423e-01    4.082685e-02   9.934702e-03
  3.178405e-01    3.144498e-02   8.019673e-03
  3.665387e-01    2.327706e-02   6.423037e-03
  4.152369e-01    2.005542e-02   5.599264e-03
  4.639351e-01    1.962305e-02   5.238106e-03
  5.126333e-01    1.656351e-02   4.577393e-03
  5.613315e-01    4.452854e-03   2.267702e-03
  6.100297e-01    5.110592e-03   2.330092e-03
  6.587279e-01    3.104335e-03   1.747329e-03
  7.074261e-01    7.017748e-03   2.534753e-03
  7.561243e-01    5.699682e-03   2.209305e-03
  8.048225e-01    4.930311e-03   1.991423e-03
  8.535207e-01    6.134177e-03   2.156734e-03
  9.022189e-01    5.778388e-03   2.035559e-03
  9.509171e-01    4.391028e-03   1.728187e-03
  9.996153e-01    3.231526e-03   1.445823e-03
  1.048313e+00    2.479989e-03   1.236690e-03
  1.097012e+00    4.599077e-03   1.646099e-03
  1.145710e+00    6.409741e-03   1.901295e-03
  1.194408e+00    3.870260e-03   1.446795e-03
  1.243106e+00    2.139695e-03   1.054344e-03
  1.291804e+00    3.089840e-03   1.242730e-03
  1.340503e+00    2.059822e-03   9.959230e-04
  1.389201e+00    3.273416e-03   1.233050e-03
  1.437899e+00    5.203288e-03   1.528189e-03
  1.486597e+00    3.710319e-03   1.268662e-03
  1.535295e+00    7.293015e-03   1.749995e-03
  1.583994e+00    8.429314e-03   1.851977e-03
  1.632692e+00    6.998729e-03   1.661894e-03
  1.681390e+00    4.340264e-03   1.289450e-03
  1.730088e+00    2.031125e-03   8.694571e-04
  1.778786e+00    3.586845e-03   1.139297e-03
  1.827485e+00    2.706787e-03   9.762714e-04
  1.876183e+00    2.339266e-03   8.955392e-04
  1.924881e+00    5.789402e-03   1.390628e-03
  1.973579e+00    2.964991e-03   9.826895e-04
  2.022277e+00    3.464677e-03   1.049180e-03
  2.070976e+00    4.581886e-03   1.192061e-03
  2.119674e+00    2.999954e-03   9.532554e-04
  2.168372e+00    3.600812e-03   1.032330e-03
  2.217070e+00    4.524835e-03   1.144259e-03
  2.265768e+00    3.800010e-03   1.037139e-03
  2.314467e+00    3.674180e-03   1.008829e-03
  2.363165e+00    2.045405e-03   7.446940e-04
  2.411863e+00    1.780910e-03   6.876872e-04
  2.460561e+00    3.072225e-03   8.940163e-04
  2.509259e+00    1.251188e-03   5.648457e-04
  2.557958e+00    1.695071e-03   6.510237e-04
  2.606656e+00    3.136092e-03   8.769962e-04
  2.655354e+00    8.322929e-04   4.475266e-04
  2.704052e+00    1.377424e-03   5.703772e-04
  2.752750e+00    2.031240e-03   6.863246e-04
  2.801449e+00    1.437367e-03   5.721523e-04
  2.850147e+00    1.237542e-03   5.262055e-04
  2.898845e+00    3.886131e-03   9.243813e-04
  2.947543e+00    1.323835e-03   5.349045e-04
  2.996241e+00    2.602916e-03   7.658073e-04
  3.044940e+00    1.503853e-03   6.012361e-04
  3.093638e+00    6.211040e-04   3.928416e-04
  3.142336e+00    1.764462e-03   6.702200e-04
  3.191034e+00    1.033230e-03   5.178491e-04
  3.239732e+00    2.832413e-03   8.642671e-04
  3.288431e+00    5.129459e-04   3.703377e-04
  3.337129e+00    1.353037e-03   5.996654e-04
  3.385827e+00    1.208607e-03   5.383523e-04
  3.434525e+00    1.996323e-03   6.730603e-04
  3.483223e+00    1.663629e-03   6.026979e-04
  3.531922e+00    4.348048e-04   3.033362e-04
  3.580620e+00    7.909029e-04   4.035973e-04
  3.629318e+00    1.266753e-03   5.045603e-04
  3.678016e+00    1.765594e-03   5.890051e-04
  3.726714e+00    1.642422e-03   5.621490e-04
  3.775413e+00    5.898852e-04   3.335519e-04
  3.824111e+00    9.306260e-04   4.149859e-04
  3.872809e+00    7.568955e-04   3.708866e-04
  3.921507e+00    4.450278e-04   2.818848e-04
  3.970205e+00    8.266047e-04   3.809344e-04
  4.018904e+00    1.160915e-03   4.477520e-04
  4.067602e+00    9.578877e-04   4.034788e-04
  4.116300e+00    5.890517e-04   3.139285e-04
  4.164998e+00    8.925598e-04   3.834954e-04
  4.213696e+00    9.156067e-04   3.855379e-04
  4.262395e+00    1.275021e-03   4.516359e-04
  4.311093e+00    7.905873e-04   3.530934e-04
  4.359791e+00    1.420289e-03   4.699318e-04
  4.408489e+00    7.129585e-04   3.306562e-04
  4.457187e+00    6.272395e-04   3.080440e-04
  4.505886e+00    1.602188e-03   4.890286e-04
  4.554584e+00    8.862273e-04   3.613147e-04
  4.603282e+00    4.589692e-04   2.583331e-04
  4.651980e+00    7.962389e-04   3.380829e-04
  4.700678e+00    6.092929e-04   2.938779e-04
  4.749377e+00    1.351883e-03   4.350232e-04
  4.798075e+00    1.091145e-03   3.884350e-04
  4.846773e+00    1.885119e-03   5.074497e-04
  4.895471e+00    1.017089e-03   3.704862e-04
  4.944169e+00    1.265060e-03   4.107450e-04
  4.992868e+00    6.608535e-04   2.979310e-04
  5.041566e+00    5.753920e-04   2.811280e-04
  5.090264e+00    7.805628e-04   3.287231e-04
  5.138962e+00    6.148827e-04   2.923167e-04
  5.187660e+00    8.929565e-04   3.530475e-04
  5.236359e+00    6.917090e-04   3.170287e-04
  5.285057e+00    9.648094e-04   3.793725e-04
  5.333755e+00    7.880816e-04   3.460136e-04
  5.382453e+00    1.141647e-03   4.195373e-04
  5.431151e+00    1.554008e-03   4.925375e-04
  5.479850e+00    1.422204e-03   4.737280e-04
  5.528548e+00    4.591483e-04   2.704465e-04
  5.577246e+00    1.409386e-03   4.758513e-04
  5.625944e+00    2.135877e-03   5.880714e-04
  5.674642e+00    1.819599e-03   5.447223e-04
  5.723341e+00    1.741353e-04   1.690555e-04
  5.772039e+00    8.611286e-04   3.770157e-04
  5.820737e+00    1.067974e-03   4.197482e-04
  5.869435e+00    3.938875e-04   2.543221e-04
  5.918133e+00    6.525296e-04   3.265799e-04
  5.966832e+00    5.314421e-04   2.939614e-04
  6.015530e+00    8.519717e-04   3.711004e-04
  6.064228e+00    5.379721e-04   2.940103e-04
  6.112926e+00    4.913754e-04   2.801800e-04
  6.161624e+00    3.394606e-04   2.323080e-04
  6.210323e+00    3.465540e-04   2.349060e-04
  6.259021e+00    1.303525e-03   4.561826e-04
  6.307719e+00    7.511385e-04   3.467993e-04
  6.356417e+00    3.454402e-04   2.354384e-04
  6.405115e+00    1.094298e-03   4.195414e-04
  6.453814e+00    7.157500e-04   3.397084e-04
  6.502512e+00    1.580994e-03   5.053811e-04
  6.551210e+00    4.910660e-04   2.819631e-04
  6.599908e+00    4.739997e-04   2.772781e-04
  6.648606e+00    3.332000e-04   2.326553e-04
  6.697305e+00    4.060598e-04   2.570484e-04
  6.746003e+00    8.863140e-04   3.800783e-04
  6.794701e+00    3.192552e-04   2.282602e-04
  6.843399e+00    1.728258e-03   5.314185e-04
  6.892097e+00    8.964122e-04   3.829746e-04
  6.940796e+00    1.541749e-03   5.025340e-04
  6.989494e+00    4.727868e-04   2.784786e-04
  7.038192e+00    1.070897e-03   4.192773e-04
  7.086890e+00    1.868243e-04   1.751921e-04
  7.135588e+00    1.234285e-03   4.505058e-04
  7.184287e+00    7.857363e-04   3.595881e-04
  7.232985e+00    1.174857e-03   4.398979e-04
  7.281683e+00    5.823653e-04   3.097840e-04
  7.330381e+00    3.848483e-04   2.519310e-04
  7.379079e+00    3.590492e-04   2.433953e-04
  7.427778e+00    5.527485e-04   3.020956e-04
  7.476476e+00    2.830849e-04   2.162039e-04
  7.525174e+00    1.181676e-03   4.418561e-04
  7.573872e+00    5.581484e-04   3.037444e-04
  7.622570e+00    6.434384e-04   3.261647e-04
  7.671269e+00    3.127805e-04   2.274248e-04
  7.719967e+00    1.061046e-03   4.189527e-04
  7.768665e+00    1.846724e-04   1.747641e-04
  7.817363e+00    9.955309e-04   4.058241e-04
  7.866061e+00    6.836316e-04   3.363260e-04
  7.914760e+00    7.277874e-04   3.470411e-04
  7.963458e+00    4.312020e-04   2.670805e-04
  8.012156e+00    1.055947e-03   4.180255e-04
  8.060854e+00    1.862289e-04   1.755288e-04
  8.109552e+00    1.415840e-04   1.530181e-04
  8.158251e+00    6.050923e-04   3.163831e-04
  8.206949e+00    1.869836e-04   1.758332e-04
  8.255647e+00    1.469387e-04   1.558405e-04
  8.304345e+00    2.277674e-04   1.940375e-04
  8.353043e+00    1.714254e-04   1.767226e-04
  8.401742e+00    7.436242e-04   3.915736e-04
  8.450440e+00    0.000000e+00   0.000000e+00
  8.499138e+00    7.942769e-04   4.375679e-04
  8.547836e+00    3.511409e-03   9.518994e-04
  8.596534e+00    1.642256e-03   6.729245e-04
  8.645233e+00    6.740994e-04   4.452104e-04
  8.693931e+00    7.201025e-04   4.752452e-04
  8.742629e+00    3.849150e-04   3.589330e-04
  8.791327e+00    0.000000e+00   0.000000e+00
  8.840025e+00    2.939789e-05   1.060690e-04
  8.888724e+00    4.427842e-04   4.265413e-04
  8.937422e+00    0.000000e+00   0.000000e+00
  8.986120e+00    0.000000e+00   0.000000e+00
  9.034818e+00    1.570423e-04   2.849298e-04
  9.083516e+00    4.836864e-04   5.221702e-04
  9.132215e+00    7.190499e-04   6.665023e-04
  9.180913e+00    0.000000e+00   0.000000e+00
  9.229611e+00    0.000000e+00   0.000000e+00
  9.278309e+00    1.001397e-03   9.253992e-04
  9.327007e+00    1.549567e-03   1.230336e-03
  9.375706e+00    8.626988e-04   9.901906e-04
  9.424404e+00    1.593144e-03   1.468678e-03
  9.473102e+00    1.969250e-03   1.814395e-03
  9.521800e+00    0.000000e+00   0.000000e+00
  9.570498e+00    0.000000e+00   0.000000e+00
  9.619197e+00    0.000000e+00   0.000000e+00
  9.667895e+00    0.000000e+00   0.000000e+00
  9.716593e+00    0.000000e+00   0.000000e+00
