# == pyFAI calibration ==
# Distance Sample to Detector: 0.556827 m
# PONI: 5.862e-02, 5.656e-02 m
# Rotations: 0.000000 0.000000 0.000000 rad
# 
# == Fit2d calibration ==
# Distance Sample-beamCenter: 556.827 mm
# Center: x=754.100, y=781.664 pix
# Tilt: 0.000 deg  TiltPlanRot: 0.000 deg
# 
# Detector Detector	 Spline= None	 PixelSize= 7.500e-05, 7.500e-05 m
#    Detector has a mask: False 
#    Detector has a dark current: False 
#    detector has a flat field: False 
# 
# Wavelength: 1.5406e-10 m
# Mask applied: user provided
# Dark current applied: False
# Flat field applied: False
# Polarization factor: None
# Normalization factor: 1.0
# --> test/reduced/Au_with_SiW_555_0001_mean_200bins.dat
#        q_A^-1              I           sigma 
  1.479786e-03    1.942206e+06   1.408444e+02
  4.439359e-03    6.997902e+05   4.879845e+01
  7.398931e-03    2.251922e+04   6.339871e+00
  1.035850e-02    1.899911e+02   5.129713e-01
  1.331808e-02    2.528423e+01   1.665890e-01
  1.627765e-02    2.574002e+00   4.734658e-02
  1.923722e-02    9.367411e-01   2.696062e-02
  2.219679e-02    7.400892e-01   2.232075e-02
  2.515637e-02    6.035352e-01   1.893632e-02
  2.811594e-02    5.026757e-01   1.633821e-02
  3.107551e-02    4.311368e-01   1.440062e-02
  3.403508e-02    3.760139e-01   1.285265e-02
  3.699466e-02    3.371431e-01   1.166486e-02
  3.995423e-02    3.091576e-01   1.075416e-02
  4.291380e-02    2.892200e-01   1.004066e-02
  4.587337e-02    2.711138e-01   9.396628e-03
  4.883294e-02    2.601644e-01   8.917738e-03
  5.179252e-02    2.534263e-01   8.547980e-03
  5.475209e-02    2.481831e-01   8.232792e-03
  5.771166e-02    2.436613e-01   7.943644e-03
  6.067123e-02    2.432390e-01   7.743067e-03
  6.363081e-02    2.424974e-01   7.549548e-03
  6.659038e-02    2.419050e-01   7.367293e-03
  6.954995e-02    2.433549e-01   7.232969e-03
  7.250952e-02    2.432925e-01   7.082405e-03
  7.546910e-02    2.442117e-01   6.953055e-03
  7.842867e-02    2.431551e-01   6.806070e-03
  8.138824e-02    2.438195e-01   6.693856e-03
  8.434781e-02    2.424453e-01   6.554374e-03
  8.730739e-02    2.427597e-01   6.446546e-03
  9.026696e-02    2.429479e-01   6.342001e-03
  9.322653e-02    2.423365e-01   6.235079e-03
  9.618610e-02    2.404650e-01   6.116116e-03
  9.914568e-02    2.396233e-01   6.011808e-03
  1.021052e-01    2.379749e-01   5.904234e-03
  1.050648e-01    2.354269e-01   5.788852e-03
  1.080244e-01    2.324309e-01   5.670443e-03
  1.109840e-01    2.310423e-01   5.577627e-03
  1.139435e-01    2.275435e-01   5.464160e-03
  1.169031e-01    2.256519e-01   5.371382e-03
  1.198627e-01    2.223787e-01   5.265655e-03
  1.228223e-01    2.187558e-01   5.159643e-03
  1.257818e-01    2.169917e-01   5.077860e-03
  1.287414e-01    2.142510e-01   5.104993e-03
  1.317010e-01    2.113343e-01   5.179160e-03
  1.346605e-01    2.096790e-01   5.335396e-03
  1.376201e-01    2.085248e-01   5.428225e-03
  1.405797e-01    2.078020e-01   5.496526e-03
  1.435393e-01    2.066533e-01   5.548335e-03
  1.464988e-01    2.046196e-01   5.573114e-03
  1.494584e-01    2.099290e-01   5.548086e-03
  1.524180e-01    2.096779e-01   5.623694e-03
  1.553776e-01    2.104425e-01   5.825399e-03
  1.583371e-01    2.097719e-01   5.873893e-03
  1.612967e-01    2.104164e-01   5.891948e-03
  1.642563e-01    2.081937e-01   5.859084e-03
  1.672158e-01    2.079315e-01   5.852578e-03
  1.701754e-01    2.069588e-01   5.830078e-03
  1.731350e-01    2.050533e-01   5.790505e-03
  1.760946e-01    2.059056e-01   5.793849e-03
  1.790541e-01    2.028492e-01   5.737025e-03
  1.820137e-01    2.036666e-01   5.734456e-03
  1.849733e-01    2.040048e-01   5.725557e-03
  1.879328e-01    2.023978e-01   5.689195e-03
  1.908924e-01    2.001965e-01   5.640813e-03
  1.938520e-01    1.995847e-01   5.613705e-03
  1.968116e-01    1.999995e-01   5.600556e-03
  1.997711e-01    1.963280e-01   5.510719e-03
  2.027307e-01    1.959795e-01   5.464804e-03
  2.056903e-01    1.967421e-01   5.432223e-03
  2.086499e-01    1.941141e-01   5.353537e-03
  2.116094e-01    1.944400e-01   5.327681e-03
  2.145690e-01    1.922303e-01   5.281766e-03
  2.175286e-01    1.915236e-01   5.257817e-03
  2.204881e-01    1.913888e-01   5.241139e-03
  2.234477e-01    1.897223e-01   5.201829e-03
  2.264073e-01    1.898464e-01   5.189285e-03
  2.293669e-01    1.882580e-01   5.151059e-03
  2.323264e-01    1.869354e-01   5.120536e-03
  2.352860e-01    1.859278e-01   5.091673e-03
  2.382456e-01    1.853330e-01   5.067594e-03
  2.412052e-01    1.847186e-01   5.044932e-03
  2.441647e-01    1.840880e-01   5.022869e-03
  2.471243e-01    1.831013e-01   4.993077e-03
  2.500839e-01    1.829586e-01   4.975352e-03
  2.530434e-01    1.830692e-01   4.964375e-03
  2.560030e-01    1.805288e-01   4.913398e-03
  2.589626e-01    1.822354e-01   4.924208e-03
  2.619222e-01    1.806536e-01   4.887775e-03
  2.648817e-01    1.797058e-01   4.861624e-03
  2.678413e-01    1.780906e-01   4.825998e-03
  2.708009e-01    1.770903e-01   4.797083e-03
  2.737604e-01    1.780449e-01   4.797869e-03
  2.767200e-01    1.753588e-01   4.746339e-03
  2.796796e-01    1.755833e-01   4.738030e-03
  2.826392e-01    1.744223e-01   4.707500e-03
  2.855987e-01    1.743288e-01   4.691341e-03
  2.885583e-01    1.736918e-01   4.669028e-03
  2.915179e-01    1.724246e-01   4.637937e-03
  2.944775e-01    1.716342e-01   4.616274e-03
  2.974370e-01    1.701458e-01   4.582890e-03
  3.003966e-01    1.704289e-01   4.576129e-03
  3.033562e-01    1.685639e-01   4.536446e-03
  3.063157e-01    1.687690e-01   4.526591e-03
  3.092753e-01    1.674578e-01   4.494700e-03
  3.122349e-01    1.662549e-01   4.465823e-03
  3.151945e-01    1.659153e-01   4.449802e-03
  3.181540e-01    1.652900e-01   4.430879e-03
  3.211136e-01    1.644584e-01   4.406772e-03
  3.240732e-01    1.629761e-01   4.373386e-03
  3.270328e-01    1.632818e-01   4.366916e-03
  3.299923e-01    1.625437e-01   4.344542e-03
  3.329519e-01    1.618354e-01   4.322741e-03
  3.359115e-01    1.606855e-01   4.295059e-03
  3.388710e-01    1.598658e-01   4.273775e-03
  3.418306e-01    1.585708e-01   4.244944e-03
  3.447902e-01    1.560440e-01   4.199315e-03
  3.477498e-01    1.560241e-01   4.188534e-03
  3.507093e-01    1.546379e-01   4.157380e-03
  3.536689e-01    1.538795e-01   4.135607e-03
  3.566285e-01    1.525827e-01   4.107795e-03
  3.595880e-01    1.522151e-01   4.094472e-03
  3.625476e-01    1.510567e-01   4.068644e-03
  3.655072e-01    1.512171e-01   4.059964e-03
  3.684668e-01    1.497216e-01   4.028159e-03
  3.714263e-01    1.483267e-01   3.999515e-03
  3.743859e-01    1.465804e-01   3.964726e-03
  3.773455e-01    1.461326e-01   3.948987e-03
  3.803051e-01    1.451252e-01   3.925926e-03
  3.832646e-01    1.436814e-01   3.897432e-03
  3.862242e-01    1.435687e-01   3.887043e-03
  3.891838e-01    1.413083e-01   3.844545e-03
  3.921433e-01    1.402267e-01   3.819235e-03
  3.951029e-01    1.407569e-01   3.818306e-03
  3.980625e-01    1.386598e-01   3.778887e-03
  4.010221e-01    1.378932e-01   3.759623e-03
  4.039816e-01    1.370091e-01   3.737602e-03
  4.069412e-01    1.369892e-01   3.729665e-03
  4.099008e-01    1.355773e-01   3.702275e-03
  4.128604e-01    1.347316e-01   3.738438e-03
  4.158199e-01    1.334951e-01   3.868560e-03
  4.187795e-01    1.323042e-01   3.939245e-03
  4.217391e-01    1.308017e-01   3.984186e-03
  4.246986e-01    1.306308e-01   4.043299e-03
  4.276582e-01    1.313551e-01   4.182428e-03
  4.306178e-01    1.304504e-01   4.467375e-03
  4.335774e-01    1.304398e-01   4.671086e-03
  4.365369e-01    1.302404e-01   4.837162e-03
  4.394965e-01    1.274694e-01   4.962138e-03
  4.424561e-01    1.263968e-01   5.110111e-03
  4.454156e-01    1.263130e-01   5.267372e-03
  4.483752e-01    1.256866e-01   5.413126e-03
  4.513348e-01    1.260877e-01   5.587117e-03
  4.542944e-01    1.247231e-01   5.692855e-03
  4.572539e-01    1.253671e-01   5.811168e-03
  4.602135e-01    1.238422e-01   5.868026e-03
  4.631731e-01    1.233430e-01   5.948579e-03
  4.661327e-01    1.213619e-01   6.002172e-03
  4.690922e-01    1.224266e-01   6.134431e-03
  4.720518e-01    1.200195e-01   6.169884e-03
  4.750114e-01    1.191996e-01   6.265394e-03
  4.779709e-01    1.180186e-01   6.341499e-03
  4.809305e-01    1.180108e-01   6.444195e-03
  4.838901e-01    1.176838e-01   6.544115e-03
  4.868497e-01    1.150585e-01   6.583928e-03
  4.898092e-01    1.157478e-01   6.728072e-03
  4.927688e-01    1.138436e-01   6.782692e-03
  4.957284e-01    1.126277e-01   6.873247e-03
  4.986880e-01    1.124752e-01   7.001808e-03
  5.016475e-01    1.131372e-01   7.157350e-03
  5.046071e-01    1.121963e-01   7.265388e-03
  5.075667e-01    1.106103e-01   7.358229e-03
  5.105262e-01    1.134148e-01   7.615260e-03
  5.134858e-01    1.128031e-01   7.753622e-03
  5.164454e-01    1.118119e-01   7.890416e-03
  5.194050e-01    1.091573e-01   7.964601e-03
  5.223645e-01    1.076785e-01   8.100172e-03
  5.253241e-01    1.054341e-01   8.211806e-03
  5.282837e-01    1.050697e-01   8.403060e-03
  5.312432e-01    1.052291e-01   8.633910e-03
  5.342028e-01    1.044404e-01   8.827438e-03
  5.371624e-01    1.091149e-01   9.297727e-03
  5.401220e-01    1.042912e-01   9.346862e-03
  5.430815e-01    1.003051e-01   9.442944e-03
  5.460411e-01    9.785229e-02   9.641443e-03
  5.490007e-01    1.002814e-01   1.013616e-02
  5.519603e-01    1.009027e-01   1.055887e-02
  5.549198e-01    9.931838e-02   1.087795e-02
  5.578794e-01    9.908731e-02   1.135611e-02
  5.608390e-01    9.743162e-02   1.180828e-02
  5.637985e-01    9.123336e-02   1.202138e-02
  5.667581e-01    8.931702e-02   1.261659e-02
  5.697177e-01    8.605904e-02   1.317706e-02
  5.726773e-01    8.671834e-02   1.422070e-02
  5.756368e-01    8.289909e-02   1.510648e-02
  5.785964e-01    8.094000e-02   1.661399e-02
  5.815560e-01    7.742116e-02   1.849320e-02
  5.845156e-01    7.323010e-02   2.124115e-02
  5.874751e-01    6.809996e-02   2.627490e-02
  5.904347e-01    8.324209e-02   5.007517e-02
