# == pyFAI calibration ==
# Distance Sample to Detector: 0.556827 m
# PONI: 5.862e-02, 5.656e-02 m
# Rotations: 0.000000 0.000000 0.000000 rad
# 
# == Fit2d calibration ==
# Distance Sample-beamCenter: 556.827 mm
# Center: x=754.100, y=781.664 pix
# Tilt: 0.000 deg  TiltPlanRot: 0.000 deg
# 
# Detector Detector	 Spline= None	 PixelSize= 7.500e-05, 7.500e-05 m
#    Detector has a mask: False 
#    Detector has a dark current: False 
#    detector has a flat field: False 
# 
# Wavelength: 1.5406e-10 m
# Mask applied: user provided
# Dark current applied: False
# Flat field applied: False
# Polarization factor: None
# Normalization factor: 1.0
# --> test/reduced/Au_with_SiW_555_0001_mean_1000bins.dat
#        q_A^-1              I           sigma 
  2.959572e-04    2.244138e+06   5.995729e+02
  8.878717e-04    2.211158e+06   3.479977e+02
  1.479786e-03    2.119840e+06   2.648895e+02
  2.071701e-03    1.950716e+06   2.149718e+02
  2.663615e-03    1.710150e+06   1.776875e+02
  3.255530e-03    1.411109e+06   1.459136e+02
  3.847444e-03    1.084452e+06   1.174207e+02
  4.439359e-03    7.516130e+05   9.115437e+01
  5.031273e-03    4.434914e+05   6.569308e+01
  5.623188e-03    2.129937e+05   4.306574e+01
  6.215102e-03    8.645573e+04   2.602458e+01
  6.807017e-03    2.966982e+04   1.457553e+01
  7.398931e-03    8.787742e+03   7.538258e+00
  7.990846e-03    2.552343e+03   3.912474e+00
  8.582760e-03    8.924587e+02   2.224643e+00
  9.174675e-03    4.158708e+02   1.468226e+00
  9.766589e-03    2.466431e+02   1.096400e+00
  1.035850e-02    1.565282e+02   8.459769e-01
  1.095042e-02    1.057827e+02   6.749068e-01
  1.154233e-02    7.243827e+01   5.451160e-01
  1.213425e-02    4.866896e+01   4.334176e-01
  1.272616e-02    3.400720e+01   3.550011e-01
  1.331808e-02    2.388599e+01   2.906072e-01
  1.390999e-02    1.530213e+01   2.280435e-01
  1.450190e-02    8.927126e+00   1.699608e-01
  1.509382e-02    5.890019e+00   1.367523e-01
  1.568573e-02    3.256619e+00   9.949528e-02
  1.627765e-02    1.729510e+00   7.118452e-02
  1.686956e-02    1.277814e+00   6.103732e-02
  1.746148e-02    1.134032e+00   5.660571e-02
  1.805339e-02    1.048178e+00   5.349635e-02
  1.864531e-02    9.796351e-01   5.084133e-02
  1.923722e-02    9.246287e-01   4.863067e-02
  1.982914e-02    8.914187e-01   4.700424e-02
  2.042105e-02    8.544274e-01   4.534956e-02
  2.101296e-02    8.164980e-01   4.373601e-02
  2.160488e-02    7.726971e-01   4.197460e-02
  2.219679e-02    7.322633e-01   4.036198e-02
  2.278871e-02    7.029821e-01   3.899479e-02
  2.338062e-02    6.848885e-01   3.811057e-02
  2.397254e-02    6.505989e-01   3.668983e-02
  2.456445e-02    6.254447e-01   3.547116e-02
  2.515637e-02    6.019991e-01   3.441785e-02
  2.574828e-02    5.825309e-01   3.347085e-02
  2.634019e-02    5.622647e-01   3.241812e-02
  2.693211e-02    5.394329e-01   3.139364e-02
  2.752402e-02    5.179799e-01   3.038623e-02
  2.811594e-02    5.002277e-01   2.955058e-02
  2.870785e-02    4.836758e-01   2.879905e-02
  2.929977e-02    4.754772e-01   2.832521e-02
  2.989168e-02    4.629746e-01   2.765427e-02
  3.048360e-02    4.438144e-01   2.682405e-02
  3.107551e-02    4.267538e-01   2.600632e-02
  3.166742e-02    4.223182e-01   2.573452e-02
  3.225934e-02    4.025352e-01   2.476856e-02
  3.285125e-02    3.926498e-01   2.429944e-02
  3.344317e-02    3.865798e-01   2.388559e-02
  3.403508e-02    3.780584e-01   2.339103e-02
  3.462700e-02    3.661980e-01   2.279570e-02
  3.521891e-02    3.581332e-01   2.235562e-02
  3.581083e-02    3.549614e-01   2.213601e-02
  3.640274e-02    3.425496e-01   2.150866e-02
  3.699466e-02    3.367021e-01   2.117486e-02
  3.758657e-02    3.280025e-01   2.077040e-02
  3.817848e-02    3.247011e-01   2.051700e-02
  3.877040e-02    3.193151e-01   2.019813e-02
  3.936231e-02    3.090647e-01   1.968063e-02
  3.995423e-02    3.106374e-01   1.961935e-02
  4.054614e-02    3.074756e-01   1.938261e-02
  4.113806e-02    2.998957e-01   1.899991e-02
  4.172997e-02    2.970079e-01   1.871979e-02
  4.232189e-02    2.914611e-01   1.837554e-02
  4.291380e-02    2.880694e-01   1.816505e-02
  4.350571e-02    2.872994e-01   1.802345e-02
  4.409763e-02    2.827135e-01   1.779921e-02
  4.468954e-02    2.736482e-01   1.734586e-02
  4.528146e-02    2.746967e-01   1.734143e-02
  4.587337e-02    2.728525e-01   1.714307e-02
  4.646529e-02    2.664567e-01   1.681414e-02
  4.705720e-02    2.681628e-01   1.682788e-02
  4.764912e-02    2.662644e-01   1.665198e-02
  4.824103e-02    2.606950e-01   1.633475e-02
  4.883294e-02    2.567623e-01   1.610088e-02
  4.942486e-02    2.574793e-01   1.604263e-02
  5.001677e-02    2.598112e-01   1.598695e-02
  5.060869e-02    2.584359e-01   1.583491e-02
  5.120060e-02    2.549897e-01   1.566928e-02
  5.179252e-02    2.511676e-01   1.545223e-02
  5.238443e-02    2.513928e-01   1.538639e-02
  5.297635e-02    2.513469e-01   1.529879e-02
  5.356826e-02    2.500347e-01   1.519528e-02
  5.416018e-02    2.481541e-01   1.508717e-02
  5.475209e-02    2.453431e-01   1.488193e-02
  5.534400e-02    2.491764e-01   1.492018e-02
  5.593592e-02    2.482365e-01   1.480471e-02
  5.652783e-02    2.444829e-01   1.459833e-02
  5.711975e-02    2.452221e-01   1.453950e-02
  5.771166e-02    2.444810e-01   1.444139e-02
  5.830358e-02    2.419142e-01   1.427943e-02
  5.889549e-02    2.422854e-01   1.424358e-02
  5.948741e-02    2.446885e-01   1.425106e-02
  6.007932e-02    2.444150e-01   1.416198e-02
  6.067123e-02    2.415705e-01   1.400143e-02
  6.126315e-02    2.438326e-01   1.406079e-02
  6.185506e-02    2.417515e-01   1.389280e-02
  6.244698e-02    2.423697e-01   1.383817e-02
  6.303889e-02    2.439355e-01   1.382793e-02
  6.363081e-02    2.424432e-01   1.373031e-02
  6.422272e-02    2.419838e-01   1.362997e-02
  6.481464e-02    2.417841e-01   1.355498e-02
  6.540655e-02    2.397428e-01   1.340542e-02
  6.599847e-02    2.405571e-01   1.341138e-02
  6.659038e-02    2.398125e-01   1.332605e-02
  6.718229e-02    2.428626e-01   1.334820e-02
  6.777421e-02    2.464108e-01   1.342919e-02
  6.836612e-02    2.432627e-01   1.323396e-02
  6.895804e-02    2.428246e-01   1.320141e-02
  6.954995e-02    2.435169e-01   1.316319e-02
  7.014187e-02    2.456747e-01   1.317130e-02
  7.073378e-02    2.415009e-01   1.296395e-02
  7.132570e-02    2.419615e-01   1.294875e-02
  7.191761e-02    2.411849e-01   1.287058e-02
  7.250952e-02    2.415578e-01   1.280265e-02
  7.310144e-02    2.445958e-01   1.282690e-02
  7.369335e-02    2.470519e-01   1.289520e-02
  7.428527e-02    2.441818e-01   1.272392e-02
  7.487718e-02    2.433589e-01   1.265714e-02
  7.546910e-02    2.459259e-01   1.270383e-02
  7.606101e-02    2.431309e-01   1.256793e-02
  7.665293e-02    2.444582e-01   1.257328e-02
  7.724484e-02    2.450439e-01   1.252785e-02
  7.783675e-02    2.424211e-01   1.240487e-02
  7.842867e-02    2.413381e-01   1.232361e-02
  7.902058e-02    2.433276e-01   1.234287e-02
  7.961250e-02    2.436588e-01   1.229366e-02
  8.020441e-02    2.445370e-01   1.227200e-02
  8.079633e-02    2.432825e-01   1.217448e-02
  8.138824e-02    2.437391e-01   1.215536e-02
  8.198016e-02    2.442810e-01   1.212496e-02
  8.257207e-02    2.432690e-01   1.207407e-02
  8.316399e-02    2.413361e-01   1.196712e-02
  8.375590e-02    2.412899e-01   1.192363e-02
  8.434781e-02    2.439696e-01   1.195841e-02
  8.493973e-02    2.423254e-01   1.188042e-02
  8.553164e-02    2.432712e-01   1.187509e-02
  8.612356e-02    2.429523e-01   1.180892e-02
  8.671547e-02    2.422446e-01   1.175867e-02
  8.730739e-02    2.419239e-01   1.169519e-02
  8.789930e-02    2.435071e-01   1.168810e-02
  8.849122e-02    2.431595e-01   1.163473e-02
  8.908313e-02    2.425050e-01   1.159179e-02
  8.967504e-02    2.420991e-01   1.152169e-02
  9.026696e-02    2.430794e-01   1.154251e-02
  9.085887e-02    2.419544e-01   1.147203e-02
  9.145079e-02    2.450692e-01   1.151571e-02
  9.204270e-02    2.455257e-01   1.149603e-02
  9.263462e-02    2.408538e-01   1.133966e-02
  9.322653e-02    2.421317e-01   1.134184e-02
  9.381845e-02    2.432928e-01   1.132447e-02
  9.441036e-02    2.399343e-01   1.120829e-02
  9.500227e-02    2.393177e-01   1.115840e-02
  9.559419e-02    2.414853e-01   1.114157e-02
  9.618610e-02    2.418187e-01   1.114022e-02
  9.677802e-02    2.386855e-01   1.102627e-02
  9.736993e-02    2.410143e-01   1.108280e-02
  9.796185e-02    2.394490e-01   1.098828e-02
  9.855376e-02    2.386935e-01   1.093451e-02
  9.914568e-02    2.403756e-01   1.094894e-02
  9.973759e-02    2.397891e-01   1.090976e-02
  1.003295e-01    2.397986e-01   1.089619e-02
  1.009214e-01    2.384890e-01   1.080637e-02
  1.015133e-01    2.396455e-01   1.080716e-02
  1.021052e-01    2.385567e-01   1.072945e-02
  1.026972e-01    2.373106e-01   1.066928e-02
  1.032891e-01    2.359150e-01   1.060830e-02
  1.038810e-01    2.362960e-01   1.058630e-02
  1.044729e-01    2.397868e-01   1.064907e-02
  1.050648e-01    2.354419e-01   1.050502e-02
  1.056567e-01    2.322329e-01   1.042157e-02
  1.062486e-01    2.334513e-01   1.043595e-02
  1.068406e-01    2.335949e-01   1.039926e-02
  1.074325e-01    2.341471e-01   1.039873e-02
  1.080244e-01    2.327265e-01   1.033711e-02
  1.086163e-01    2.297975e-01   1.022002e-02
  1.092082e-01    2.319307e-01   1.024173e-02
  1.098001e-01    2.331146e-01   1.023622e-02
  1.103921e-01    2.326042e-01   1.020696e-02
  1.109840e-01    2.287829e-01   1.006899e-02
  1.115759e-01    2.304416e-01   1.010737e-02
  1.121678e-01    2.303095e-01   1.007023e-02
  1.127597e-01    2.303405e-01   1.003980e-02
  1.133516e-01    2.277645e-01   9.959747e-03
  1.139435e-01    2.271386e-01   9.933961e-03
  1.145355e-01    2.271037e-01   9.907039e-03
  1.151274e-01    2.254248e-01   9.845584e-03
  1.157193e-01    2.260878e-01   9.829894e-03
  1.163112e-01    2.252175e-01   9.784191e-03
  1.169031e-01    2.255946e-01   9.765170e-03
  1.174950e-01    2.253573e-01   9.717767e-03
  1.180869e-01    2.260023e-01   9.716163e-03
  1.186789e-01    2.242460e-01   9.661019e-03
  1.192708e-01    2.210129e-01   9.559453e-03
  1.198627e-01    2.209556e-01   9.538770e-03
  1.204546e-01    2.229551e-01   9.561929e-03
  1.210465e-01    2.227295e-01   9.542785e-03
  1.216384e-01    2.213829e-01   9.487540e-03
  1.222303e-01    2.189733e-01   9.409079e-03
  1.228223e-01    2.179508e-01   9.375579e-03
  1.234142e-01    2.173419e-01   9.329796e-03
  1.240061e-01    2.181689e-01   9.335158e-03
  1.245980e-01    2.184479e-01   9.310720e-03
  1.251899e-01    2.174632e-01   9.256778e-03
  1.257818e-01    2.163309e-01   9.213363e-03
  1.263737e-01    2.147538e-01   9.152317e-03
  1.269657e-01    2.179801e-01   9.226329e-03
  1.275576e-01    2.185924e-01   9.290512e-03
  1.281495e-01    2.146618e-01   9.226044e-03
  1.287414e-01    2.136081e-01   9.262246e-03
  1.293333e-01    2.122335e-01   9.267126e-03
  1.299252e-01    2.120491e-01   9.282531e-03
  1.305171e-01    2.114351e-01   9.278369e-03
  1.311091e-01    2.122651e-01   9.330432e-03
  1.317010e-01    2.123819e-01   9.423588e-03
  1.322929e-01    2.100785e-01   9.475463e-03
  1.328848e-01    2.104278e-01   9.546243e-03
  1.334767e-01    2.108577e-01   9.613173e-03
  1.340686e-01    2.094234e-01   9.612606e-03
  1.346605e-01    2.094081e-01   9.664334e-03
  1.352525e-01    2.096878e-01   9.716034e-03
  1.358444e-01    2.089838e-01   9.759153e-03
  1.364363e-01    2.089330e-01   9.823456e-03
  1.370282e-01    2.080070e-01   9.824074e-03
  1.376201e-01    2.083177e-01   9.871158e-03
  1.382120e-01    2.088791e-01   9.916210e-03
  1.388039e-01    2.084868e-01   9.935127e-03
  1.393959e-01    2.088679e-01   9.985479e-03
  1.399878e-01    2.088643e-01   1.000257e-02
  1.405797e-01    2.085961e-01   9.997937e-03
  1.411716e-01    2.078155e-01   9.998950e-03
  1.417635e-01    2.048202e-01   9.926019e-03
  1.423554e-01    2.068278e-01   1.001696e-02
  1.429473e-01    2.076600e-01   1.003999e-02
  1.435393e-01    2.084100e-01   1.012929e-02
  1.441312e-01    2.055455e-01   1.007557e-02
  1.447231e-01    2.047973e-01   1.010164e-02
  1.453150e-01    2.029712e-01   1.007623e-02
  1.459069e-01    2.052832e-01   1.017808e-02
  1.464988e-01    2.074544e-01   1.023539e-02
  1.470907e-01    2.043929e-01   1.017084e-02
  1.476827e-01    2.029936e-01   1.011530e-02
  1.482746e-01    2.068684e-01   1.013578e-02
  1.488665e-01    2.094461e-01   1.010690e-02
  1.494584e-01    2.104444e-01   1.007955e-02
  1.500503e-01    2.110295e-01   1.003804e-02
  1.506422e-01    2.117477e-01   1.013693e-02
  1.512342e-01    2.088204e-01   1.013353e-02
  1.518261e-01    2.089559e-01   1.018254e-02
  1.524180e-01    2.090924e-01   1.023983e-02
  1.530099e-01    2.095644e-01   1.028014e-02
  1.536018e-01    2.120011e-01   1.037919e-02
  1.541937e-01    2.101918e-01   1.041890e-02
  1.547856e-01    2.103265e-01   1.056626e-02
  1.553776e-01    2.103551e-01   1.059038e-02
  1.559695e-01    2.106984e-01   1.064641e-02
  1.565614e-01    2.106528e-01   1.066955e-02
  1.571533e-01    2.106708e-01   1.067484e-02
  1.577452e-01    2.104145e-01   1.066605e-02
  1.583371e-01    2.105364e-01   1.067663e-02
  1.589290e-01    2.088707e-01   1.062327e-02
  1.595210e-01    2.083608e-01   1.063640e-02
  1.601129e-01    2.137046e-01   1.079123e-02
  1.607048e-01    2.136041e-01   1.077200e-02
  1.612967e-01    2.103528e-01   1.069799e-02
  1.618886e-01    2.065569e-01   1.055668e-02
  1.624805e-01    2.078597e-01   1.061641e-02
  1.630724e-01    2.068858e-01   1.057514e-02
  1.636644e-01    2.075793e-01   1.060895e-02
  1.642563e-01    2.104350e-01   1.070694e-02
  1.648482e-01    2.082865e-01   1.062441e-02
  1.654401e-01    2.077812e-01   1.062897e-02
  1.660320e-01    2.060896e-01   1.056216e-02
  1.666239e-01    2.088298e-01   1.066541e-02
  1.672158e-01    2.089878e-01   1.066921e-02
  1.678078e-01    2.084891e-01   1.062475e-02
  1.683997e-01    2.072605e-01   1.060773e-02
  1.689916e-01    2.063447e-01   1.057111e-02
  1.695835e-01    2.060338e-01   1.054330e-02
  1.701754e-01    2.073769e-01   1.058676e-02
  1.707673e-01    2.077268e-01   1.057660e-02
  1.713592e-01    2.073093e-01   1.058514e-02
  1.719512e-01    2.041846e-01   1.050666e-02
  1.725431e-01    2.045766e-01   1.051038e-02
  1.731350e-01    2.038519e-01   1.047860e-02
  1.737269e-01    2.056184e-01   1.054190e-02
  1.743188e-01    2.070308e-01   1.056077e-02
  1.749107e-01    2.075917e-01   1.059638e-02
  1.755026e-01    2.055968e-01   1.050941e-02
  1.760946e-01    2.054653e-01   1.049843e-02
  1.766865e-01    2.062869e-01   1.051568e-02
  1.772784e-01    2.045910e-01   1.048930e-02
  1.778703e-01    2.015848e-01   1.038496e-02
  1.784622e-01    2.032960e-01   1.044051e-02
  1.790541e-01    2.025187e-01   1.041946e-02
  1.796460e-01    2.023744e-01   1.039081e-02
  1.802380e-01    2.044673e-01   1.046574e-02
  1.808299e-01    2.023081e-01   1.039550e-02
  1.814218e-01    2.047127e-01   1.047143e-02
  1.820137e-01    2.025092e-01   1.038538e-02
  1.826056e-01    2.045781e-01   1.046129e-02
  1.831975e-01    2.042213e-01   1.042396e-02
  1.837894e-01    2.043784e-01   1.043369e-02
  1.843814e-01    2.050056e-01   1.044449e-02
  1.849733e-01    2.035493e-01   1.037515e-02
  1.855652e-01    2.043972e-01   1.040646e-02
  1.861571e-01    2.026975e-01   1.036122e-02
  1.867490e-01    2.010204e-01   1.031284e-02
  1.873409e-01    2.023219e-01   1.035458e-02
  1.879328e-01    2.037332e-01   1.036154e-02
  1.885248e-01    2.036360e-01   1.037094e-02
  1.891167e-01    2.012757e-01   1.032725e-02
  1.897086e-01    2.008009e-01   1.031296e-02
  1.903005e-01    2.001702e-01   1.027322e-02
  1.908924e-01    2.008613e-01   1.028499e-02
  1.914843e-01    1.989233e-01   1.019006e-02
  1.920763e-01    2.002298e-01   1.024417e-02
  1.926682e-01    1.990219e-01   1.019595e-02
  1.932601e-01    1.974016e-01   1.014376e-02
  1.938520e-01    1.993492e-01   1.021525e-02
  1.944439e-01    2.010299e-01   1.025342e-02
  1.950358e-01    2.011116e-01   1.025251e-02
  1.956277e-01    2.014662e-01   1.024668e-02
  1.962197e-01    2.007236e-01   1.021345e-02
  1.968116e-01    2.017425e-01   1.025407e-02
  1.974035e-01    1.978684e-01   1.013741e-02
  1.979954e-01    1.982185e-01   1.014690e-02
  1.985873e-01    1.978506e-01   1.008791e-02
  1.991792e-01    1.969199e-01   1.003018e-02
  1.997711e-01    1.961446e-01   1.001130e-02
  2.003631e-01    1.956158e-01   9.983256e-03
  2.009550e-01    1.951299e-01   9.965518e-03
  2.015469e-01    1.946298e-01   9.960031e-03
  2.021388e-01    1.962320e-01   9.975202e-03
  2.027307e-01    1.973212e-01   9.992624e-03
  2.033226e-01    1.955530e-01   9.917093e-03
  2.039145e-01    1.961540e-01   9.931643e-03
  2.045065e-01    1.978491e-01   9.962744e-03
  2.050984e-01    1.991374e-01   9.986040e-03
  2.056903e-01    1.970526e-01   9.904906e-03
  2.062822e-01    1.939525e-01   9.778751e-03
  2.068741e-01    1.957472e-01   9.827849e-03
  2.074660e-01    1.955183e-01   9.797478e-03
  2.080579e-01    1.959959e-01   9.806813e-03
  2.086499e-01    1.932823e-01   9.737330e-03
  2.092418e-01    1.920263e-01   9.687850e-03
  2.098337e-01    1.937703e-01   9.713962e-03
  2.104256e-01    1.941556e-01   9.703414e-03
  2.110175e-01    1.940030e-01   9.684340e-03
  2.116094e-01    1.960834e-01   9.755668e-03
  2.122013e-01    1.945944e-01   9.711985e-03
  2.127933e-01    1.933640e-01   9.668015e-03
  2.133852e-01    1.926067e-01   9.633983e-03
  2.139771e-01    1.914916e-01   9.569714e-03
  2.145690e-01    1.936228e-01   9.640174e-03
  2.151609e-01    1.919387e-01   9.589048e-03
  2.157528e-01    1.914935e-01   9.597260e-03
  2.163447e-01    1.910197e-01   9.564820e-03
  2.169367e-01    1.927627e-01   9.616493e-03
  2.175286e-01    1.904534e-01   9.540963e-03
  2.181205e-01    1.908433e-01   9.560257e-03
  2.187124e-01    1.925374e-01   9.616176e-03
  2.193043e-01    1.927548e-01   9.602595e-03
  2.198962e-01    1.922757e-01   9.579060e-03
  2.204881e-01    1.909149e-01   9.518811e-03
  2.210801e-01    1.902424e-01   9.487349e-03
  2.216720e-01    1.907627e-01   9.520322e-03
  2.222639e-01    1.903747e-01   9.504365e-03
  2.228558e-01    1.903027e-01   9.498748e-03
  2.234477e-01    1.889223e-01   9.467171e-03
  2.240396e-01    1.890687e-01   9.462463e-03
  2.246315e-01    1.899455e-01   9.469253e-03
  2.252235e-01    1.918333e-01   9.519054e-03
  2.258154e-01    1.899899e-01   9.486261e-03
  2.264073e-01    1.885437e-01   9.443392e-03
  2.269992e-01    1.901423e-01   9.472635e-03
  2.275911e-01    1.887299e-01   9.399064e-03
  2.281830e-01    1.894487e-01   9.425076e-03
  2.287749e-01    1.887536e-01   9.402767e-03
  2.293669e-01    1.870417e-01   9.341112e-03
  2.299588e-01    1.880627e-01   9.396619e-03
  2.305507e-01    1.879874e-01   9.377566e-03
  2.311426e-01    1.895699e-01   9.432845e-03
  2.317345e-01    1.860374e-01   9.303897e-03
  2.323264e-01    1.866758e-01   9.316612e-03
  2.329183e-01    1.872080e-01   9.347132e-03
  2.335103e-01    1.851940e-01   9.296411e-03
  2.341022e-01    1.854958e-01   9.276648e-03
  2.346941e-01    1.862903e-01   9.292237e-03
  2.352860e-01    1.860286e-01   9.282871e-03
  2.358779e-01    1.861908e-01   9.278047e-03
  2.364698e-01    1.856336e-01   9.248485e-03
  2.370618e-01    1.856523e-01   9.269385e-03
  2.376537e-01    1.849969e-01   9.244870e-03
  2.382456e-01    1.864235e-01   9.281608e-03
  2.388375e-01    1.846007e-01   9.215038e-03
  2.394294e-01    1.849937e-01   9.232750e-03
  2.400213e-01    1.848185e-01   9.223738e-03
  2.406132e-01    1.837797e-01   9.199288e-03
  2.412052e-01    1.850546e-01   9.230540e-03
  2.417971e-01    1.854955e-01   9.235579e-03
  2.423890e-01    1.844437e-01   9.197819e-03
  2.429809e-01    1.830781e-01   9.127371e-03
  2.435728e-01    1.843700e-01   9.182835e-03
  2.441647e-01    1.842264e-01   9.160058e-03
  2.447566e-01    1.855809e-01   9.212043e-03
  2.453486e-01    1.831831e-01   9.128603e-03
  2.459405e-01    1.827291e-01   9.120280e-03
  2.465324e-01    1.836214e-01   9.135881e-03
  2.471243e-01    1.836361e-01   9.124537e-03
  2.477162e-01    1.821885e-01   9.093132e-03
  2.483081e-01    1.833317e-01   9.118507e-03
  2.489000e-01    1.836899e-01   9.124839e-03
  2.494920e-01    1.812251e-01   9.029096e-03
  2.500839e-01    1.831300e-01   9.083940e-03
  2.506758e-01    1.830177e-01   9.072760e-03
  2.512677e-01    1.837277e-01   9.078565e-03
  2.518596e-01    1.846522e-01   9.113232e-03
  2.524515e-01    1.837655e-01   9.103436e-03
  2.530434e-01    1.826765e-01   9.055956e-03
  2.536354e-01    1.823749e-01   9.039585e-03
  2.542273e-01    1.818845e-01   9.027083e-03
  2.548192e-01    1.799587e-01   8.971409e-03
  2.554111e-01    1.808172e-01   9.002018e-03
  2.560030e-01    1.812634e-01   9.003160e-03
  2.565949e-01    1.787403e-01   8.907238e-03
  2.571868e-01    1.818627e-01   9.005800e-03
  2.577788e-01    1.823125e-01   8.980487e-03
  2.583707e-01    1.833659e-01   9.030106e-03
  2.589626e-01    1.811360e-01   8.959071e-03
  2.595545e-01    1.816731e-01   8.970970e-03
  2.601464e-01    1.826903e-01   9.006521e-03
  2.607383e-01    1.810061e-01   8.938666e-03
  2.613302e-01    1.812348e-01   8.962582e-03
  2.619222e-01    1.788016e-01   8.884637e-03
  2.625141e-01    1.805809e-01   8.946059e-03
  2.631060e-01    1.816422e-01   8.956552e-03
  2.636979e-01    1.806321e-01   8.917884e-03
  2.642898e-01    1.798311e-01   8.879877e-03
  2.648817e-01    1.800947e-01   8.878716e-03
  2.654736e-01    1.798958e-01   8.872750e-03
  2.660656e-01    1.780810e-01   8.818555e-03
  2.666575e-01    1.778861e-01   8.824185e-03
  2.672494e-01    1.769817e-01   8.781794e-03
  2.678413e-01    1.789389e-01   8.850677e-03
  2.684332e-01    1.784843e-01   8.822651e-03
  2.690251e-01    1.781596e-01   8.814298e-03
  2.696170e-01    1.786554e-01   8.833839e-03
  2.702090e-01    1.774387e-01   8.780871e-03
  2.708009e-01    1.758403e-01   8.734093e-03
  2.713928e-01    1.750803e-01   8.695341e-03
  2.719847e-01    1.784397e-01   8.791366e-03
  2.725766e-01    1.784740e-01   8.780348e-03
  2.731685e-01    1.793541e-01   8.800567e-03
  2.737604e-01    1.793298e-01   8.816677e-03
  2.743524e-01    1.766759e-01   8.726809e-03
  2.749443e-01    1.763989e-01   8.719694e-03
  2.755362e-01    1.775195e-01   8.745433e-03
  2.761281e-01    1.767577e-01   8.721537e-03
  2.767200e-01    1.742446e-01   8.657273e-03
  2.773119e-01    1.739487e-01   8.656244e-03
  2.779039e-01    1.743345e-01   8.646621e-03
  2.784958e-01    1.752939e-01   8.662171e-03
  2.790877e-01    1.754224e-01   8.653428e-03
  2.796796e-01    1.775075e-01   8.703521e-03
  2.802715e-01    1.752631e-01   8.627928e-03
  2.808634e-01    1.744319e-01   8.634127e-03
  2.814553e-01    1.735941e-01   8.607390e-03
  2.820473e-01    1.738103e-01   8.597550e-03
  2.826392e-01    1.741751e-01   8.604988e-03
  2.832311e-01    1.746257e-01   8.625446e-03
  2.838230e-01    1.758993e-01   8.652362e-03
  2.844149e-01    1.748824e-01   8.596990e-03
  2.850068e-01    1.741170e-01   8.586640e-03
  2.855987e-01    1.737653e-01   8.552147e-03
  2.861907e-01    1.751124e-01   8.580782e-03
  2.867826e-01    1.737683e-01   8.541001e-03
  2.873745e-01    1.732451e-01   8.535345e-03
  2.879664e-01    1.729288e-01   8.528943e-03
  2.885583e-01    1.726685e-01   8.525182e-03
  2.891502e-01    1.742452e-01   8.565219e-03
  2.897421e-01    1.753647e-01   8.570608e-03
  2.903341e-01    1.746881e-01   8.557145e-03
  2.909260e-01    1.723735e-01   8.503043e-03
  2.915179e-01    1.713457e-01   8.468693e-03
  2.921098e-01    1.726574e-01   8.504464e-03
  2.927017e-01    1.710674e-01   8.432587e-03
  2.932936e-01    1.722105e-01   8.466437e-03
  2.938855e-01    1.724336e-01   8.471020e-03
  2.944775e-01    1.719151e-01   8.452997e-03
  2.950694e-01    1.709761e-01   8.428454e-03
  2.956613e-01    1.706414e-01   8.415223e-03
  2.962532e-01    1.700380e-01   8.393638e-03
  2.968451e-01    1.689287e-01   8.348372e-03
  2.974370e-01    1.715901e-01   8.444779e-03
  2.980289e-01    1.695070e-01   8.371246e-03
  2.986209e-01    1.706630e-01   8.413175e-03
  2.992128e-01    1.700052e-01   8.373135e-03
  2.998047e-01    1.718354e-01   8.420981e-03
  3.003966e-01    1.686532e-01   8.294675e-03
  3.009885e-01    1.704791e-01   8.346054e-03
  3.015804e-01    1.711707e-01   8.385280e-03
  3.021723e-01    1.694242e-01   8.343820e-03
  3.027643e-01    1.693864e-01   8.338103e-03
  3.033562e-01    1.680002e-01   8.292463e-03
  3.039481e-01    1.668023e-01   8.246641e-03
  3.045400e-01    1.692100e-01   8.331424e-03
  3.051319e-01    1.687615e-01   8.308575e-03
  3.057238e-01    1.686161e-01   8.297971e-03
  3.063157e-01    1.690161e-01   8.292566e-03
  3.069077e-01    1.688330e-01   8.272296e-03
  3.074996e-01    1.686183e-01   8.264245e-03
  3.080915e-01    1.675942e-01   8.225459e-03
  3.086834e-01    1.682732e-01   8.245755e-03
  3.092753e-01    1.672294e-01   8.223754e-03
  3.098672e-01    1.661998e-01   8.179674e-03
  3.104591e-01    1.679939e-01   8.231472e-03
  3.110511e-01    1.683124e-01   8.245680e-03
  3.116430e-01    1.653851e-01   8.160453e-03
  3.122349e-01    1.653625e-01   8.175288e-03
  3.128268e-01    1.658540e-01   8.169061e-03
  3.134187e-01    1.663643e-01   8.169888e-03
  3.140106e-01    1.661801e-01   8.160600e-03
  3.146025e-01    1.651813e-01   8.124327e-03
  3.151945e-01    1.652780e-01   8.127403e-03
  3.157864e-01    1.664559e-01   8.163783e-03
  3.163783e-01    1.664793e-01   8.156784e-03
  3.169702e-01    1.652427e-01   8.125465e-03
  3.175621e-01    1.650687e-01   8.104917e-03
  3.181540e-01    1.669557e-01   8.150255e-03
  3.187459e-01    1.660282e-01   8.135940e-03
  3.193379e-01    1.631582e-01   8.059667e-03
  3.199298e-01    1.632988e-01   8.049810e-03
  3.205217e-01    1.641485e-01   8.052689e-03
  3.211136e-01    1.650275e-01   8.080529e-03
  3.217055e-01    1.645806e-01   8.060285e-03
  3.222974e-01    1.652321e-01   8.073316e-03
  3.228894e-01    1.649862e-01   8.070494e-03
  3.234813e-01    1.626797e-01   8.020342e-03
  3.240732e-01    1.619398e-01   7.984403e-03
  3.246651e-01    1.633329e-01   8.013859e-03
  3.252570e-01    1.619472e-01   7.971278e-03
  3.258489e-01    1.632625e-01   8.016336e-03
  3.264408e-01    1.646942e-01   8.059328e-03
  3.270328e-01    1.625647e-01   7.976323e-03
  3.276247e-01    1.632193e-01   7.989332e-03
  3.282166e-01    1.626710e-01   7.958229e-03
  3.288085e-01    1.637434e-01   7.982703e-03
  3.294004e-01    1.642900e-01   7.996242e-03
  3.299923e-01    1.630037e-01   7.966129e-03
  3.305842e-01    1.612743e-01   7.928905e-03
  3.311762e-01    1.604181e-01   7.896416e-03
  3.317681e-01    1.620473e-01   7.935908e-03
  3.323600e-01    1.629075e-01   7.949495e-03
  3.329519e-01    1.608499e-01   7.890130e-03
  3.335438e-01    1.606792e-01   7.890340e-03
  3.341357e-01    1.626942e-01   7.932340e-03
  3.347276e-01    1.633776e-01   7.945708e-03
  3.353196e-01    1.613599e-01   7.882099e-03
  3.359115e-01    1.604093e-01   7.853032e-03
  3.365034e-01    1.590633e-01   7.815626e-03
  3.370953e-01    1.592281e-01   7.827044e-03
  3.376872e-01    1.600671e-01   7.838344e-03
  3.382791e-01    1.602737e-01   7.857276e-03
  3.388710e-01    1.592836e-01   7.816382e-03
  3.394630e-01    1.600522e-01   7.845853e-03
  3.400549e-01    1.596533e-01   7.834835e-03
  3.406468e-01    1.598042e-01   7.822135e-03
  3.412387e-01    1.585406e-01   7.772492e-03
  3.418306e-01    1.581700e-01   7.752642e-03
  3.424225e-01    1.580358e-01   7.744852e-03
  3.430144e-01    1.583071e-01   7.766734e-03
  3.436064e-01    1.565786e-01   7.719371e-03
  3.441983e-01    1.557056e-01   7.696240e-03
  3.447902e-01    1.564794e-01   7.712579e-03
  3.453821e-01    1.563115e-01   7.713163e-03
  3.459740e-01    1.551477e-01   7.673211e-03
  3.465659e-01    1.563065e-01   7.698618e-03
  3.471578e-01    1.565442e-01   7.691232e-03
  3.477498e-01    1.578862e-01   7.726865e-03
  3.483417e-01    1.545531e-01   7.617507e-03
  3.489336e-01    1.548356e-01   7.641538e-03
  3.495255e-01    1.548073e-01   7.627241e-03
  3.501174e-01    1.541719e-01   7.609766e-03
  3.507093e-01    1.538165e-01   7.590121e-03
  3.513012e-01    1.549416e-01   7.627544e-03
  3.518932e-01    1.554503e-01   7.635333e-03
  3.524851e-01    1.545120e-01   7.610797e-03
  3.530770e-01    1.546840e-01   7.620968e-03
  3.536689e-01    1.536314e-01   7.579931e-03
  3.542608e-01    1.530351e-01   7.572990e-03
  3.548527e-01    1.535388e-01   7.566308e-03
  3.554446e-01    1.546690e-01   7.598322e-03
  3.560366e-01    1.516524e-01   7.500473e-03
  3.566285e-01    1.509662e-01   7.484457e-03
  3.572204e-01    1.528219e-01   7.548937e-03
  3.578123e-01    1.528066e-01   7.539386e-03
  3.584042e-01    1.524426e-01   7.516539e-03
  3.589961e-01    1.519746e-01   7.494428e-03
  3.595880e-01    1.519425e-01   7.503655e-03
  3.601800e-01    1.526521e-01   7.532820e-03
  3.607719e-01    1.520640e-01   7.507768e-03
  3.613638e-01    1.506871e-01   7.451383e-03
  3.619557e-01    1.511843e-01   7.463759e-03
  3.625476e-01    1.507023e-01   7.449787e-03
  3.631395e-01    1.514464e-01   7.450920e-03
  3.637315e-01    1.512620e-01   7.450152e-03
  3.643234e-01    1.515334e-01   7.468300e-03
  3.649153e-01    1.508573e-01   7.432955e-03
  3.655072e-01    1.504890e-01   7.422846e-03
  3.660991e-01    1.519796e-01   7.474758e-03
  3.666910e-01    1.512254e-01   7.445708e-03
  3.672829e-01    1.507432e-01   7.418721e-03
  3.678749e-01    1.511688e-01   7.443091e-03
  3.684668e-01    1.501002e-01   7.392485e-03
  3.690587e-01    1.486665e-01   7.336730e-03
  3.696506e-01    1.479376e-01   7.319889e-03
  3.702425e-01    1.491872e-01   7.363993e-03
  3.708344e-01    1.477094e-01   7.310105e-03
  3.714263e-01    1.478721e-01   7.329549e-03
  3.720183e-01    1.477155e-01   7.313954e-03
  3.726102e-01    1.491490e-01   7.362297e-03
  3.732021e-01    1.464006e-01   7.277284e-03
  3.737940e-01    1.455912e-01   7.260834e-03
  3.743859e-01    1.472196e-01   7.313961e-03
  3.749778e-01    1.469532e-01   7.286826e-03
  3.755697e-01    1.467347e-01   7.268308e-03
  3.761617e-01    1.474172e-01   7.270274e-03
  3.767536e-01    1.470944e-01   7.267823e-03
  3.773455e-01    1.435347e-01   7.159569e-03
  3.779374e-01    1.466631e-01   7.278474e-03
  3.785293e-01    1.459570e-01   7.235971e-03
  3.791212e-01    1.449167e-01   7.210893e-03
  3.797131e-01    1.432964e-01   7.156516e-03
  3.803051e-01    1.466521e-01   7.261383e-03
  3.808970e-01    1.458797e-01   7.224916e-03
  3.814889e-01    1.448778e-01   7.192490e-03
  3.820808e-01    1.439692e-01   7.157761e-03
  3.826727e-01    1.440644e-01   7.145472e-03
  3.832646e-01    1.436145e-01   7.137628e-03
  3.838565e-01    1.439690e-01   7.154069e-03
  3.844485e-01    1.427926e-01   7.113173e-03
  3.850404e-01    1.436196e-01   7.147713e-03
  3.856323e-01    1.434118e-01   7.132148e-03
  3.862242e-01    1.435369e-01   7.137848e-03
  3.868161e-01    1.438003e-01   7.139009e-03
  3.874080e-01    1.434748e-01   7.134162e-03
  3.879999e-01    1.410871e-01   7.045256e-03
  3.885919e-01    1.409847e-01   7.041706e-03
  3.891838e-01    1.415075e-01   7.046215e-03
  3.897757e-01    1.418167e-01   7.056949e-03
  3.903676e-01    1.411447e-01   7.040279e-03
  3.909595e-01    1.388003e-01   6.971362e-03
  3.915514e-01    1.394699e-01   6.997365e-03
  3.921433e-01    1.409279e-01   7.028123e-03
  3.927353e-01    1.402196e-01   7.001386e-03
  3.933272e-01    1.417090e-01   7.054981e-03
  3.939191e-01    1.425575e-01   7.072848e-03
  3.945110e-01    1.416488e-01   7.041441e-03
  3.951029e-01    1.405239e-01   7.004142e-03
  3.956948e-01    1.392136e-01   6.947886e-03
  3.962867e-01    1.398477e-01   6.972419e-03
  3.968787e-01    1.384517e-01   6.929210e-03
  3.974706e-01    1.386027e-01   6.951971e-03
  3.980625e-01    1.390122e-01   6.953085e-03
  3.986544e-01    1.388457e-01   6.945783e-03
  3.992463e-01    1.383867e-01   6.921994e-03
  3.998382e-01    1.394570e-01   6.945659e-03
  4.004301e-01    1.392840e-01   6.953591e-03
  4.010221e-01    1.365235e-01   6.872590e-03
  4.016140e-01    1.366681e-01   6.872197e-03
  4.022059e-01    1.375400e-01   6.883093e-03
  4.027978e-01    1.364288e-01   6.842009e-03
  4.033897e-01    1.369736e-01   6.867100e-03
  4.039816e-01    1.361856e-01   6.829744e-03
  4.045736e-01    1.373574e-01   6.874535e-03
  4.051655e-01    1.380966e-01   6.887996e-03
  4.057574e-01    1.379804e-01   6.878901e-03
  4.063493e-01    1.371712e-01   6.859832e-03
  4.069412e-01    1.370110e-01   6.853779e-03
  4.075331e-01    1.365782e-01   6.844941e-03
  4.081250e-01    1.362092e-01   6.833401e-03
  4.087170e-01    1.347947e-01   6.777155e-03
  4.093089e-01    1.343259e-01   6.746672e-03
  4.099008e-01    1.361207e-01   6.796852e-03
  4.104927e-01    1.367917e-01   6.827990e-03
  4.110846e-01    1.358493e-01   6.803861e-03
  4.116765e-01    1.353732e-01   6.784272e-03
  4.122684e-01    1.353910e-01   6.784651e-03
  4.128604e-01    1.343846e-01   6.818842e-03
  4.134523e-01    1.345665e-01   6.925665e-03
  4.140442e-01    1.338661e-01   6.948481e-03
  4.146361e-01    1.346100e-01   7.016145e-03
  4.152280e-01    1.335391e-01   7.027873e-03
  4.158199e-01    1.325458e-01   7.030683e-03
  4.164118e-01    1.333495e-01   7.092864e-03
  4.170038e-01    1.334015e-01   7.151804e-03
  4.175957e-01    1.321677e-01   7.143775e-03
  4.181876e-01    1.331707e-01   7.209508e-03
  4.187795e-01    1.316982e-01   7.170808e-03
  4.193714e-01    1.323992e-01   7.222911e-03
  4.199633e-01    1.320784e-01   7.220551e-03
  4.205552e-01    1.316759e-01   7.238308e-03
  4.211472e-01    1.311375e-01   7.241908e-03
  4.217391e-01    1.296189e-01   7.203036e-03
  4.223310e-01    1.306706e-01   7.265248e-03
  4.229229e-01    1.308922e-01   7.308585e-03
  4.235148e-01    1.310474e-01   7.360077e-03
  4.241067e-01    1.304344e-01   7.367172e-03
  4.246986e-01    1.304645e-01   7.395797e-03
  4.252906e-01    1.311519e-01   7.424198e-03
  4.258825e-01    1.300488e-01   7.386333e-03
  4.264744e-01    1.315650e-01   7.448298e-03
  4.270663e-01    1.319638e-01   7.483602e-03
  4.276582e-01    1.321338e-01   7.586956e-03
  4.282501e-01    1.312982e-01   7.727548e-03
  4.288420e-01    1.296506e-01   7.788342e-03
  4.294340e-01    1.312998e-01   7.957178e-03
  4.300259e-01    1.305908e-01   8.016415e-03
  4.306178e-01    1.296906e-01   8.078597e-03
  4.312097e-01    1.294124e-01   8.128633e-03
  4.318016e-01    1.312224e-01   8.262440e-03
  4.323935e-01    1.319256e-01   8.368156e-03
  4.329854e-01    1.315890e-01   8.407111e-03
  4.335774e-01    1.302553e-01   8.430679e-03
  4.341693e-01    1.292945e-01   8.463274e-03
  4.347612e-01    1.290108e-01   8.497313e-03
  4.353531e-01    1.305428e-01   8.599654e-03
  4.359450e-01    1.321305e-01   8.723370e-03
  4.365369e-01    1.304712e-01   8.700862e-03
  4.371288e-01    1.291888e-01   8.701906e-03
  4.377208e-01    1.287820e-01   8.772118e-03
  4.383127e-01    1.280441e-01   8.821526e-03
  4.389046e-01    1.268378e-01   8.811709e-03
  4.394965e-01    1.280766e-01   8.926504e-03
  4.400884e-01    1.283013e-01   9.017505e-03
  4.406803e-01    1.260509e-01   8.978683e-03
  4.412722e-01    1.263043e-01   9.059350e-03
  4.418642e-01    1.275582e-01   9.165617e-03
  4.424561e-01    1.251213e-01   9.109201e-03
  4.430480e-01    1.260125e-01   9.206103e-03
  4.436399e-01    1.269854e-01   9.293400e-03
  4.442318e-01    1.266931e-01   9.338880e-03
  4.448237e-01    1.271325e-01   9.405808e-03
  4.454156e-01    1.259759e-01   9.422312e-03
  4.460076e-01    1.264804e-01   9.481819e-03
  4.465995e-01    1.252397e-01   9.477149e-03
  4.471914e-01    1.255454e-01   9.587137e-03
  4.477833e-01    1.251884e-01   9.606284e-03
  4.483752e-01    1.258074e-01   9.700158e-03
  4.489671e-01    1.266154e-01   9.794518e-03
  4.495591e-01    1.252872e-01   9.752380e-03
  4.501510e-01    1.267072e-01   9.906793e-03
  4.507429e-01    1.259021e-01   9.928650e-03
  4.513348e-01    1.250657e-01   9.945634e-03
  4.519267e-01    1.263697e-01   1.005330e-02
  4.525186e-01    1.263918e-01   1.010469e-02
  4.531105e-01    1.244750e-01   1.009339e-02
  4.537025e-01    1.239107e-01   1.008033e-02
  4.542944e-01    1.267718e-01   1.027093e-02
  4.548863e-01    1.255026e-01   1.023267e-02
  4.554782e-01    1.229456e-01   1.014115e-02
  4.560701e-01    1.238693e-01   1.022945e-02
  4.566620e-01    1.258477e-01   1.033859e-02
  4.572539e-01    1.272291e-01   1.044545e-02
  4.578459e-01    1.254183e-01   1.036338e-02
  4.584378e-01    1.244767e-01   1.041990e-02
  4.590297e-01    1.227515e-01   1.033638e-02
  4.596216e-01    1.233696e-01   1.041936e-02
  4.602135e-01    1.224844e-01   1.039706e-02
  4.608054e-01    1.248284e-01   1.054707e-02
  4.613973e-01    1.258270e-01   1.062286e-02
  4.619893e-01    1.237337e-01   1.056372e-02
  4.625812e-01    1.227126e-01   1.054968e-02
  4.631731e-01    1.225887e-01   1.058004e-02
  4.637650e-01    1.231721e-01   1.064716e-02
  4.643569e-01    1.245213e-01   1.070194e-02
  4.649488e-01    1.225918e-01   1.068847e-02
  4.655407e-01    1.221013e-01   1.071354e-02
  4.661327e-01    1.222709e-01   1.074265e-02
  4.667246e-01    1.203268e-01   1.069452e-02
  4.673165e-01    1.194650e-01   1.068779e-02
  4.679084e-01    1.208737e-01   1.076790e-02
  4.685003e-01    1.239687e-01   1.096822e-02
  4.690922e-01    1.232391e-01   1.097252e-02
  4.696841e-01    1.208460e-01   1.087497e-02
  4.702761e-01    1.232144e-01   1.105419e-02
  4.708680e-01    1.193778e-01   1.086377e-02
  4.714599e-01    1.196567e-01   1.095502e-02
  4.720518e-01    1.225804e-01   1.113875e-02
  4.726437e-01    1.191444e-01   1.096786e-02
  4.732356e-01    1.193342e-01   1.103269e-02
  4.738275e-01    1.198320e-01   1.113997e-02
  4.744195e-01    1.176356e-01   1.101077e-02
  4.750114e-01    1.206131e-01   1.122949e-02
  4.756033e-01    1.208563e-01   1.125590e-02
  4.761952e-01    1.170460e-01   1.111582e-02
  4.767871e-01    1.165695e-01   1.113847e-02
  4.773790e-01    1.198418e-01   1.130399e-02
  4.779709e-01    1.204428e-01   1.143344e-02
  4.785629e-01    1.165100e-01   1.121344e-02
  4.791548e-01    1.167085e-01   1.129311e-02
  4.797467e-01    1.171730e-01   1.133090e-02
  4.803386e-01    1.190719e-01   1.148250e-02
  4.809305e-01    1.193178e-01   1.151056e-02
  4.815224e-01    1.183620e-01   1.153513e-02
  4.821143e-01    1.161101e-01   1.143104e-02
  4.827063e-01    1.173372e-01   1.152577e-02
  4.832982e-01    1.186538e-01   1.164686e-02
  4.838901e-01    1.184991e-01   1.166132e-02
  4.844820e-01    1.164738e-01   1.162098e-02
  4.850739e-01    1.174413e-01   1.173598e-02
  4.856658e-01    1.161052e-01   1.167251e-02
  4.862577e-01    1.169721e-01   1.177543e-02
  4.868497e-01    1.165102e-01   1.178243e-02
  4.874416e-01    1.135100e-01   1.166971e-02
  4.880335e-01    1.121142e-01   1.161701e-02
  4.886254e-01    1.142455e-01   1.180522e-02
  4.892173e-01    1.165839e-01   1.195499e-02
  4.898092e-01    1.166697e-01   1.198164e-02
  4.904012e-01    1.156288e-01   1.198978e-02
  4.909931e-01    1.156251e-01   1.206165e-02
  4.915850e-01    1.154431e-01   1.204236e-02
  4.921769e-01    1.146844e-01   1.207708e-02
  4.927688e-01    1.131659e-01   1.200754e-02
  4.933607e-01    1.137077e-01   1.214221e-02
  4.939526e-01    1.121622e-01   1.201158e-02
  4.945446e-01    1.144940e-01   1.226804e-02
  4.951365e-01    1.127609e-01   1.217262e-02
  4.957284e-01    1.125899e-01   1.218737e-02
  4.963203e-01    1.118539e-01   1.222349e-02
  4.969122e-01    1.113871e-01   1.221136e-02
  4.975041e-01    1.128667e-01   1.241540e-02
  4.980960e-01    1.127473e-01   1.240824e-02
  4.986880e-01    1.118669e-01   1.238865e-02
  4.992799e-01    1.118666e-01   1.244404e-02
  4.998718e-01    1.130242e-01   1.256070e-02
  5.004637e-01    1.149699e-01   1.276633e-02
  5.010556e-01    1.114479e-01   1.251902e-02
  5.016475e-01    1.114925e-01   1.263210e-02
  5.022394e-01    1.128293e-01   1.272230e-02
  5.028314e-01    1.149567e-01   1.298050e-02
  5.034233e-01    1.142876e-01   1.289539e-02
  5.040152e-01    1.106387e-01   1.276185e-02
  5.046071e-01    1.100621e-01   1.284634e-02
  5.051990e-01    1.126828e-01   1.299743e-02
  5.057909e-01    1.133111e-01   1.310917e-02
  5.063828e-01    1.095900e-01   1.284442e-02
  5.069748e-01    1.111877e-01   1.309236e-02
  5.075667e-01    1.111716e-01   1.305034e-02
  5.081586e-01    1.112392e-01   1.316620e-02
  5.087505e-01    1.098680e-01   1.310819e-02
  5.093424e-01    1.114087e-01   1.330101e-02
  5.099343e-01    1.141606e-01   1.349880e-02
  5.105262e-01    1.147982e-01   1.359464e-02
  5.111182e-01    1.140099e-01   1.361819e-02
  5.117101e-01    1.127175e-01   1.356209e-02
  5.123020e-01    1.144089e-01   1.378580e-02
  5.128939e-01    1.139307e-01   1.378274e-02
  5.134858e-01    1.116269e-01   1.365193e-02
  5.140777e-01    1.129075e-01   1.383825e-02
  5.146696e-01    1.110757e-01   1.376335e-02
  5.152616e-01    1.128218e-01   1.390398e-02
  5.158535e-01    1.143630e-01   1.416181e-02
  5.164454e-01    1.116032e-01   1.394052e-02
  5.170373e-01    1.115077e-01   1.405304e-02
  5.176292e-01    1.086652e-01   1.394992e-02
  5.182211e-01    1.067436e-01   1.382967e-02
  5.188130e-01    1.084112e-01   1.404591e-02
  5.194050e-01    1.113770e-01   1.432050e-02
  5.199969e-01    1.089954e-01   1.419076e-02
  5.205888e-01    1.103300e-01   1.438113e-02
  5.211807e-01    1.092965e-01   1.430357e-02
  5.217726e-01    1.105248e-01   1.459078e-02
  5.223645e-01    1.054938e-01   1.419976e-02
  5.229564e-01    1.069925e-01   1.446911e-02
  5.235484e-01    1.059851e-01   1.441542e-02
  5.241403e-01    1.040768e-01   1.435050e-02
  5.247322e-01    1.061704e-01   1.454921e-02
  5.253241e-01    1.062748e-01   1.465097e-02
  5.259160e-01    1.051186e-01   1.458804e-02
  5.265079e-01    1.055482e-01   1.470275e-02
  5.270998e-01    1.080416e-01   1.497094e-02
  5.276918e-01    1.085560e-01   1.518147e-02
  5.282837e-01    1.029839e-01   1.476369e-02
  5.288756e-01    1.025565e-01   1.481896e-02
  5.294675e-01    1.030477e-01   1.497385e-02
  5.300594e-01    1.034324e-01   1.500728e-02
  5.306513e-01    1.019591e-01   1.495279e-02
  5.312432e-01    1.066080e-01   1.544772e-02
  5.318352e-01    1.091192e-01   1.572154e-02
  5.324271e-01    1.051389e-01   1.545146e-02
  5.330190e-01    1.041600e-01   1.551346e-02
  5.336109e-01    1.039024e-01   1.558805e-02
  5.342028e-01    1.025672e-01   1.552573e-02
  5.347947e-01    1.046941e-01   1.574715e-02
  5.353867e-01    1.069491e-01   1.598628e-02
  5.359786e-01    1.099330e-01   1.645093e-02
  5.365705e-01    1.099183e-01   1.639414e-02
  5.371624e-01    1.096335e-01   1.656359e-02
  5.377543e-01    1.084519e-01   1.653618e-02
  5.383462e-01    1.075656e-01   1.659515e-02
  5.389381e-01    1.056257e-01   1.660187e-02
  5.395301e-01    1.034510e-01   1.643115e-02
  5.401220e-01    1.034107e-01   1.651968e-02
  5.407139e-01    1.035659e-01   1.661134e-02
  5.413058e-01    1.053987e-01   1.693019e-02
  5.418977e-01    1.021675e-01   1.669138e-02
  5.424896e-01    1.003056e-01   1.674712e-02
  5.430815e-01    9.715933e-02   1.645112e-02
  5.436735e-01    9.994531e-02   1.700024e-02
  5.442654e-01    1.019357e-01   1.717516e-02
  5.448573e-01    9.821244e-02   1.695135e-02
  5.454492e-01    9.439945e-02   1.670393e-02
  5.460411e-01    9.830631e-02   1.710897e-02
  5.466330e-01    9.986874e-02   1.746731e-02
  5.472249e-01    9.855888e-02   1.736222e-02
  5.478169e-01    1.021319e-01   1.794684e-02
  5.484088e-01    9.773742e-02   1.763640e-02
  5.490007e-01    9.784877e-02   1.781639e-02
  5.495926e-01    1.029680e-01   1.832394e-02
  5.501845e-01    1.007538e-01   1.829070e-02
  5.507764e-01    1.022446e-01   1.859470e-02
  5.513683e-01    1.041881e-01   1.890729e-02
  5.519603e-01    9.888091e-02   1.849659e-02
  5.525522e-01    9.800368e-02   1.849133e-02
  5.531441e-01    1.010628e-01   1.913187e-02
  5.537360e-01    9.935831e-02   1.902879e-02
  5.543279e-01    9.932548e-02   1.928849e-02
  5.549198e-01    9.897992e-02   1.930030e-02
  5.555117e-01    9.887268e-02   1.951048e-02
  5.561037e-01    1.000713e-01   1.968166e-02
  5.566956e-01    1.004410e-01   1.993883e-02
  5.572875e-01    9.826791e-02   1.995327e-02
  5.578794e-01    9.794954e-02   1.989479e-02
  5.584713e-01    1.000454e-01   2.056175e-02
  5.590632e-01    9.870177e-02   2.057788e-02
  5.596551e-01    9.650680e-02   2.041762e-02
  5.602471e-01    1.030818e-01   2.160179e-02
  5.608390e-01    9.851660e-02   2.104099e-02
  5.614309e-01    9.387658e-02   2.077966e-02
  5.620228e-01    9.493341e-02   2.097486e-02
  5.626147e-01    9.795079e-02   2.181579e-02
  5.632066e-01    9.165587e-02   2.099701e-02
  5.637985e-01    9.215333e-02   2.168457e-02
  5.643905e-01    8.585566e-02   2.088764e-02
  5.649824e-01    8.799005e-02   2.153344e-02
  5.655743e-01    9.336418e-02   2.247511e-02
  5.661662e-01    9.241518e-02   2.252870e-02
  5.667581e-01    8.611514e-02   2.188385e-02
  5.673500e-01    8.625864e-02   2.219188e-02
  5.679419e-01    8.802289e-02   2.287652e-02
  5.685339e-01    8.818103e-02   2.295077e-02
  5.691258e-01    8.935058e-02   2.390736e-02
  5.697177e-01    8.245712e-02   2.266284e-02
  5.703096e-01    8.589511e-02   2.407821e-02
  5.709015e-01    8.409723e-02   2.385151e-02
  5.714934e-01    8.709787e-02   2.446598e-02
  5.720853e-01    8.616939e-02   2.484673e-02
  5.726773e-01    8.483747e-02   2.474363e-02
  5.732692e-01    8.560076e-02   2.555570e-02
  5.738611e-01    9.005534e-02   2.672780e-02
  5.744530e-01    8.566221e-02   2.652689e-02
  5.750449e-01    7.958063e-02   2.574326e-02
  5.756368e-01    8.121896e-02   2.665765e-02
  5.762288e-01    8.298151e-02   2.779217e-02
  5.768207e-01    8.513456e-02   2.820782e-02
  5.774126e-01    8.695439e-02   2.945749e-02
  5.780045e-01    8.029746e-02   2.845381e-02
  5.785964e-01    7.945538e-02   2.955810e-02
  5.791883e-01    7.939138e-02   2.959132e-02
  5.797802e-01    7.773438e-02   3.034841e-02
  5.803722e-01    7.780643e-02   3.103201e-02
  5.809641e-01    8.237258e-02   3.276065e-02
  5.815560e-01    7.377525e-02   3.186831e-02
  5.821479e-01    7.524292e-02   3.307635e-02
  5.827398e-01    7.744562e-02   3.484568e-02
  5.833317e-01    7.265390e-02   3.437869e-02
  5.839236e-01    7.777945e-02   3.796760e-02
  5.845156e-01    7.991557e-02   3.909315e-02
  5.851075e-01    7.208791e-02   3.899723e-02
  5.856994e-01    6.145608e-02   3.737439e-02
  5.862913e-01    6.360278e-02   4.143693e-02
  5.868832e-01    5.755084e-02   3.984778e-02
  5.874751e-01    7.322533e-02   4.925389e-02
  5.880670e-01    7.257280e-02   5.303070e-02
  5.886590e-01    7.987723e-02   5.777398e-02
  5.892509e-01    1.014374e-01   7.613153e-02
  5.898428e-01    7.333323e-02   6.863285e-02
  5.904347e-01    6.889036e-02   8.128200e-02
  5.910266e-01    8.359188e-02   1.206193e-01
  5.916185e-01    6.237567e-02   1.444109e-01
