# == pyFAI calibration ==
# Distance Sample to Detector: 0.3075 m
# PONI: 6.384e-02, 3.947e-02 m
# Rotations: 0.000000 0.000000 0.000000 rad
# 
# == Fit2d calibration ==
# Distance Sample-beamCenter: 307.500 mm
# Center: x=526.252, y=851.258 pix
# Tilt: 0.000 deg  TiltPlanRot: 0.000 deg
# 
# Detector Detector	 Spline= None	 PixelSize= 7.500e-05, 7.500e-05 m
#    Detector has a mask: False 
#    Detector has a dark current: False 
#    detector has a flat field: False 
# 
# Wavelength: 1.5406e-10 m
# Mask applied: provided
# Dark current applied: False
# Flat field applied: False
# Polarization factor: None
# Normalization factor: 1.0
# --> ././XXXX2_EB_307mm/integrated_1000bins.dat
#       q_nm^-1              I           sigma 
  4.870471e-03    1.358258e+07   2.098343e+03
  1.461141e-02    7.296678e+06   1.096479e+03
  2.435236e-02    2.944010e+06   5.716863e+02
  3.409330e-02    1.318572e+06   3.313221e+02
  4.383424e-02    6.162312e+05   2.025049e+02
  5.357518e-02    2.487912e+05   1.174516e+02
  6.331612e-02    9.052220e+04   6.558840e+01
  7.305707e-02    2.739884e+04   3.375844e+01
  8.279801e-02    3.482383e+03   1.134485e+01
  9.253895e-02    5.758735e+02   4.375845e+00
  1.022799e-01    2.817446e+02   2.917925e+00
  1.120208e-01    1.614456e+02   2.115562e+00
  1.217618e-01    1.056675e+02   1.644126e+00
  1.315027e-01    7.106491e+01   1.298691e+00
  1.412437e-01    4.906038e+01   1.042375e+00
  1.509846e-01    3.357095e+01   8.348826e-01
  1.607255e-01    1.825468e+01   5.972974e-01
  1.704665e-01    8.610711e+00   3.986450e-01
  1.802074e-01    3.476849e+00   2.465645e-01
  1.899484e-01    1.931171e+00   1.790960e-01
  1.996893e-01    1.523750e+00   1.552574e-01
  2.094303e-01    9.002139e-01   1.165842e-01
  2.191712e-01    7.615266e-01   1.048749e-01
  2.289121e-01    8.605853e-01   1.091394e-01
  2.386531e-01    6.675124e-01   9.417745e-02
  2.483940e-01    2.911052e-01   6.098445e-02
  2.581350e-01    2.272078e-01   5.287055e-02
  2.678759e-01    3.590859e-01   6.526703e-02
  2.776169e-01    5.069786e-01   7.620157e-02
  2.873578e-01    3.307092e-01   6.051299e-02
  2.970987e-01    4.971807e-01   7.298439e-02
  3.068397e-01    4.681110e-01   6.970498e-02
  3.165806e-01    2.671445e-01   5.185491e-02
  3.263216e-01    1.045241e-01   3.195381e-02
  3.360625e-01    2.775621e-01   5.132259e-02
  3.458034e-01    1.927351e-01   4.217090e-02
  3.555444e-01    1.276621e-01   3.384376e-02
  3.652853e-01    1.249365e-01   3.303524e-02
  3.750263e-01    2.140483e-01   4.268203e-02
  3.847672e-01    2.366725e-01   4.431657e-02
  3.945082e-01    1.443092e-01   3.418005e-02
  4.042491e-01    1.402362e-01   3.328993e-02
  4.139900e-01    1.353971e-01   3.232873e-02
  4.237310e-01    2.003607e-01   3.887660e-02
  4.334719e-01    1.148861e-01   2.911004e-02
  4.432129e-01    6.977933e-02   2.243898e-02
  4.529538e-01    1.056184e-01   2.731001e-02
  4.626948e-01    1.806636e-01   3.534409e-02
  4.724357e-01    1.670297e-01   3.363570e-02
  4.821766e-01    1.613183e-01   3.272341e-02
  4.919176e-01    1.906732e-01   3.522564e-02
  5.016585e-01    1.700845e-01   3.294786e-02
  5.113995e-01    1.978614e-01   3.519975e-02
  5.211404e-01    8.453446e-02   2.279350e-02
  5.308813e-01    5.544559e-02   1.829104e-02
  5.406223e-01    7.140036e-02   2.057047e-02
  5.503632e-01    5.457892e-02   1.782600e-02
  5.601042e-01    1.442477e-02   9.084690e-03
  5.698451e-01    5.879393e-02   1.818531e-02
  5.795861e-01    7.703376e-03   6.527420e-03
  5.893270e-01    2.701375e-02   1.212269e-02
  5.990679e-01    2.738194e-02   1.210519e-02
  6.088089e-01    2.256749e-02   1.090188e-02
  6.185498e-01    4.662066e-02   1.554638e-02
  6.282908e-01    5.527009e-02   1.679653e-02
  6.380317e-01    5.315233e-02   1.634614e-02
  6.477727e-01    2.736895e-02   1.164164e-02
  6.575136e-01    8.093288e-03   6.283752e-03
  6.672545e-01    2.656926e-02   1.130257e-02
  6.769955e-01    0.000000e+00   0.000000e+00
  6.867364e-01    1.826716e-02   9.238716e-03
  6.964774e-01    4.181764e-02   1.388088e-02
  7.062183e-01    6.717398e-02   1.747143e-02
  7.159592e-01    7.697657e-02   1.857625e-02
  7.257002e-01    4.157760e-02   1.356083e-02
  7.354411e-01    2.156622e-02   9.702070e-03
  7.451821e-01    6.222390e-02   1.637231e-02
  7.549230e-01    5.080187e-02   1.469818e-02
  7.646640e-01    5.160960e-02   1.472036e-02
  7.744049e-01    1.361127e-02   7.512193e-03
  7.841458e-01    7.095673e-02   1.704563e-02
  7.938868e-01    1.452145e-02   7.663985e-03
  8.036277e-01    1.245916e-02   7.055861e-03
  8.133687e-01    4.367030e-02   1.313098e-02
  8.231096e-01    3.688140e-02   1.199589e-02
  8.328506e-01    3.124400e-02   1.097515e-02
  8.425915e-01    2.045005e-02   8.828016e-03
  8.523324e-01    3.490677e-02   1.146773e-02
  8.620734e-01    6.088835e-02   1.506020e-02
  8.718143e-01    6.385784e-02   1.533707e-02
  8.815553e-01    6.147754e-02   1.496539e-02
  8.912962e-01    4.949298e-02   1.335435e-02
  9.010371e-01    3.792690e-02   1.162711e-02
  9.107781e-01    1.981349e-02   8.358892e-03
  9.205190e-01    4.554633e-02   1.260633e-02
  9.302600e-01    2.913072e-02   1.002911e-02
  9.400009e-01    2.648057e-02   9.512442e-03
  9.497419e-01    5.855583e-02   1.407273e-02
  9.594828e-01    2.685702e-02   9.482267e-03
  9.692237e-01    1.652871e-02   7.401440e-03
  9.789647e-01    1.814302e-02   7.715815e-03
  9.887056e-01    2.993790e-02   9.862606e-03
  9.984466e-01    2.799966e-03   3.001443e-03
  1.008188e+00    2.226431e-02   8.422792e-03
  1.017928e+00    3.690076e-02   1.079150e-02
  1.027669e+00    2.907558e-02   9.533835e-03
  1.037410e+00    1.384453e-03   2.070573e-03
  1.047151e+00    3.990001e-02   1.106405e-02
  1.056892e+00    2.448850e-02   8.627855e-03
  1.066633e+00    2.162321e-04   8.070405e-04
  1.076374e+00    5.123111e-04   1.236532e-03
  1.086115e+00    3.183426e-02   9.703616e-03
  1.095856e+00    1.131552e-02   5.759582e-03
  1.105597e+00    6.413441e-02   1.365124e-02
  1.115338e+00    5.342834e-02   1.240543e-02
  1.125079e+00    1.436419e-02   6.404392e-03
  1.134820e+00    4.807508e-02   1.166606e-02
  1.144561e+00    7.421800e-02   1.443324e-02
  1.154302e+00    5.449807e-02   1.231569e-02
  1.164043e+00    3.682042e-02   1.008062e-02
  1.173784e+00    2.693201e-02   8.585514e-03
  1.183524e+00    3.261447e-02   9.409031e-03
  1.193265e+00    3.551801e-02   9.778689e-03
  1.203006e+00    2.897455e-02   8.796307e-03
  1.212747e+00    1.509834e-02   6.324086e-03
  1.222488e+00    2.931415e-02   8.776806e-03
  1.232229e+00    2.813279e-02   8.564072e-03
  1.241970e+00    1.543889e-02   6.319306e-03
  1.251711e+00    1.456377e-02   6.113626e-03
  1.261452e+00    7.985113e-03   4.509378e-03
  1.271193e+00    2.396197e-02   7.781490e-03
  1.280934e+00    4.578808e-02   1.071571e-02
  1.290675e+00    1.675701e-02   6.457961e-03
  1.300416e+00    1.322264e-02   5.715021e-03
  1.310157e+00    1.980513e-02   6.968235e-03
  1.319898e+00    1.867954e-02   6.741786e-03
  1.329639e+00    2.359377e-03   2.387184e-03
  1.339380e+00    1.798553e-02   6.566938e-03
  1.349120e+00    1.290906e-02   5.543339e-03
  1.358861e+00    2.763423e-02   8.081301e-03
  1.368602e+00    2.383699e-02   7.478779e-03
  1.378343e+00    1.197506e-02   5.281976e-03
  1.388084e+00    1.818029e-02   6.485223e-03
  1.397825e+00    2.924609e-02   8.196629e-03
  1.407566e+00    3.306222e-02   8.684727e-03
  1.417307e+00    4.290102e-02   9.858661e-03
  1.427048e+00    6.735513e-02   1.231058e-02
  1.436789e+00    5.260325e-02   1.084429e-02
  1.446530e+00    2.250941e-02   7.073927e-03
  1.456271e+00    4.433937e-03   3.126997e-03
  1.466012e+00    1.137995e-02   4.992233e-03
  1.475753e+00    2.039198e-02   6.660471e-03
  1.485494e+00    3.535373e-02   8.741002e-03
  1.495235e+00    3.278571e-02   8.389948e-03
  1.504976e+00    4.330383e-02   9.610913e-03
  1.514716e+00    4.853512e-02   1.014195e-02
  1.524457e+00    6.543148e-02   1.173790e-02
  1.534198e+00    3.324153e-02   8.339628e-03
  1.543939e+00    3.934400e-02   9.044011e-03
  1.553680e+00    7.193652e-02   1.219067e-02
  1.563421e+00    6.633788e-02   1.166995e-02
  1.573162e+00    4.900571e-02   9.998806e-03
  1.582903e+00    4.833431e-02   9.899238e-03
  1.592644e+00    6.004376e-02   1.099935e-02
  1.602385e+00    8.000974e-02   1.265833e-02
  1.612126e+00    4.132123e-02   9.069142e-03
  1.621867e+00    4.027454e-02   8.926469e-03
  1.631608e+00    6.949431e-02   1.169037e-02
  1.641349e+00    5.423851e-02   1.029698e-02
  1.651090e+00    4.335725e-02   9.178894e-03
  1.660831e+00    5.969552e-02   1.073861e-02
  1.670572e+00    4.287297e-02   9.073801e-03
  1.680313e+00    1.836846e-02   5.921917e-03
  1.690053e+00    1.484530e-02   5.308331e-03
  1.699794e+00    2.217781e-02   6.469355e-03
  1.709535e+00    3.347351e-02   7.925148e-03
  1.719276e+00    1.266096e-02   4.860084e-03
  1.729017e+00    1.590208e-02   5.431314e-03
  1.738758e+00    5.496988e-03   3.184239e-03
  1.748499e+00    8.664731e-03   3.986609e-03
  1.758240e+00    1.851443e-02   5.811132e-03
  1.767981e+00    3.939516e-02   8.453177e-03
  1.777722e+00    5.015539e-02   9.511626e-03
  1.787463e+00    2.159585e-02   6.224257e-03
  1.797204e+00    0.000000e+00   0.000000e+00
  1.806945e+00    1.315558e-02   4.831474e-03
  1.816686e+00    3.522348e-02   7.884333e-03
  1.826427e+00    2.608727e-02   6.766635e-03
  1.836168e+00    1.452277e-02   5.035193e-03
  1.845909e+00    6.215662e-03   3.285253e-03
  1.855649e+00    1.553901e-02   5.180694e-03
  1.865390e+00    1.297062e-02   4.720731e-03
  1.875131e+00    2.992515e-03   2.261557e-03
  1.884872e+00    1.783661e-02   5.506855e-03
  1.894613e+00    3.346993e-02   7.523979e-03
  1.904354e+00    2.981992e-02   7.083472e-03
  1.914095e+00    4.018038e-02   8.201324e-03
  1.923836e+00    2.945021e-02   7.003313e-03
  1.933577e+00    4.448382e-02   8.585268e-03
  1.943318e+00    5.955825e-02   9.908806e-03
  1.953059e+00    4.966136e-02   9.025358e-03
  1.962800e+00    4.727459e-02   8.783638e-03
  1.972541e+00    7.656718e-03   3.526140e-03
  1.982282e+00    0.000000e+00   0.000000e+00
  1.992023e+00    6.860197e-03   3.321085e-03
  2.001764e+00    1.188011e-02   4.359679e-03
  2.011505e+00    1.197093e-02   4.365564e-03
  2.021245e+00    2.723820e-02   6.569074e-03
  2.030986e+00    2.960530e-02   6.831920e-03
  2.040727e+00    3.977028e-02   7.899286e-03
  2.050468e+00    3.470586e-02   7.361439e-03
  2.060209e+00    2.669249e-02   6.440404e-03
  2.069950e+00    3.693653e-02   7.558031e-03
  2.079691e+00    3.594609e-02   7.438328e-03
  2.089432e+00    3.095880e-02   6.886744e-03
  2.099173e+00    2.636497e-02   6.340247e-03
  2.108914e+00    1.599702e-02   4.927099e-03
  2.118655e+00    4.594252e-02   8.330392e-03
  2.128396e+00    2.211891e-02   5.766791e-03
  2.138137e+00    1.635112e-04   4.946824e-04
  2.147878e+00    2.835327e-03   2.055119e-03
  2.157619e+00    1.240597e-02   4.289036e-03
  2.167360e+00    2.021243e-02   5.462143e-03
  2.177101e+00    3.466260e-02   7.136650e-03
  2.186842e+00    5.339304e-02   8.837428e-03
  2.196582e+00    4.933767e-02   8.476021e-03
  2.206323e+00    4.041737e-02   7.654417e-03
  2.216064e+00    5.050510e-02   8.537410e-03
  2.225805e+00    1.073176e-02   3.926720e-03
  2.235546e+00    1.391668e-02   4.461610e-03
  2.245287e+00    2.571696e-02   6.051722e-03
  2.255028e+00    2.370275e-02   5.797104e-03
  2.264769e+00    2.783705e-02   6.268655e-03
  2.274510e+00    3.237277e-02   6.745355e-03
  2.284251e+00    2.701896e-02   6.151013e-03
  2.293992e+00    2.025911e-02   5.315042e-03
  2.303733e+00    4.225162e-02   7.656308e-03
  2.313474e+00    3.934158e-02   7.372129e-03
  2.323215e+00    1.589755e-02   4.676318e-03
  2.332956e+00    1.554182e-02   4.613881e-03
  2.342697e+00    2.909571e-03   1.992058e-03
  2.352438e+00    1.087600e-02   3.843352e-03
  2.362178e+00    2.101089e-02   5.330725e-03
  2.371919e+00    1.431608e-02   4.390948e-03
  2.381660e+00    2.083158e-02   5.285571e-03
  2.391401e+00    2.179883e-02   5.395691e-03
  2.401142e+00    5.804079e-03   2.778460e-03
  2.410883e+00    5.602087e-03   2.724003e-03
  2.420624e+00    1.687053e-02   4.717435e-03
  2.430365e+00    1.575463e-02   4.549484e-03
  2.440106e+00    6.956792e-03   3.016985e-03
  2.449847e+00    2.010923e-02   5.118989e-03
  2.459588e+00    3.692941e-02   6.923029e-03
  2.469329e+00    2.034343e-02   5.127989e-03
  2.479070e+00    2.496618e-02   5.669429e-03
  2.488811e+00    6.597148e-03   2.908527e-03
  2.498552e+00    1.068846e-02   3.694756e-03
  2.508293e+00    7.525438e-03   3.094092e-03
  2.518034e+00    1.326494e-02   4.099774e-03
  2.527774e+00    7.619826e-03   3.101157e-03
  2.537515e+00    8.352528e-03   3.240469e-03
  2.547256e+00    2.128534e-02   5.162844e-03
  2.556997e+00    2.154461e-02   5.184076e-03
  2.566738e+00    7.229724e-03   2.997274e-03
  2.576479e+00    2.406843e-03   1.725978e-03
  2.586220e+00    1.591014e-02   4.429101e-03
  2.595961e+00    2.422263e-02   5.454562e-03
  2.605702e+00    2.559363e-02   5.596006e-03
  2.615443e+00    3.290612e-02   6.333269e-03
  2.625184e+00    1.289973e-02   3.957785e-03
  2.634925e+00    8.939612e-03   3.288518e-03
  2.644666e+00    2.919920e-03   1.875881e-03
  2.654407e+00    6.137471e-03   2.714549e-03
  2.664148e+00    2.661116e-03   1.784104e-03
  2.673889e+00    9.338803e-03   3.335932e-03
  2.683630e+00    1.165743e-02   3.720200e-03
  2.693370e+00    3.462042e-03   2.023629e-03
  2.703111e+00    1.141332e-02   3.667409e-03
  2.712852e+00    5.711151e-03   2.589553e-03
  2.722593e+00    1.578642e-02   4.297294e-03
  2.732334e+00    2.191242e-02   5.053713e-03
  2.742075e+00    8.388482e-03   3.121148e-03
  2.751816e+00    1.190229e-02   3.711028e-03
  2.761557e+00    2.288138e-02   5.136143e-03
  2.771298e+00    8.935265e-03   3.203786e-03
  2.781039e+00    1.028183e-02   3.430573e-03
  2.790780e+00    2.366985e-03   1.643037e-03
  2.800521e+00    8.851114e-03   3.171546e-03
  2.810262e+00    1.588655e-02   4.241439e-03
  2.820003e+00    1.464876e-02   4.065657e-03
  2.829744e+00    3.344286e-03   1.939128e-03
  2.839485e+00    9.462001e-03   3.256000e-03
  2.849226e+00    5.802288e-03   2.545248e-03
  2.858967e+00    1.471557e-02   4.046259e-03
  2.868707e+00    1.083103e-02   3.465340e-03
  2.878448e+00    2.036162e-02   4.743020e-03
  2.888189e+00    3.730234e-02   6.408646e-03
  2.897930e+00    3.664061e-02   6.340547e-03
  2.907671e+00    1.997367e-02   4.673343e-03
  2.917412e+00    2.350968e-02   5.061428e-03
  2.927153e+00    9.973967e-03   3.291099e-03
  2.936894e+00    4.519521e-03   2.211596e-03
  2.946635e+00    1.216121e-02   3.621667e-03
  2.956376e+00    1.450098e-02   3.948058e-03
  2.966117e+00    7.778761e-03   2.886729e-03
  2.975858e+00    7.442359e-03   2.818810e-03
  2.985599e+00    9.816573e-03   3.288454e-03
  2.995340e+00    1.375770e-02   3.944934e-03
  3.005081e+00    3.219907e-02   6.085115e-03
  3.014822e+00    2.914536e-02   5.826829e-03
  3.024563e+00    2.434754e-02   5.354688e-03
  3.034303e+00    1.814978e-02   4.645092e-03
  3.044044e+00    7.951763e-03   3.087607e-03
  3.053785e+00    2.072575e-03   1.582407e-03
  3.063526e+00    3.039581e-03   1.923004e-03
  3.073267e+00    5.882765e-03   2.684007e-03
  3.083008e+00    0.000000e+00   0.000000e+00
  3.092749e+00    0.000000e+00   0.000000e+00
  3.102490e+00    5.905146e-04   8.576348e-04
  3.112231e+00    1.393523e-02   4.176891e-03
  3.121972e+00    1.945274e-02   4.946902e-03
  3.131713e+00    1.412011e-02   4.224280e-03
  3.141454e+00    7.107535e-03   3.003608e-03
  3.151195e+00    4.147000e-04   7.270044e-04
  3.160936e+00    2.216793e-02   5.326133e-03
  3.170677e+00    1.864316e-02   4.893842e-03
  3.180418e+00    5.661005e-03   2.701687e-03
  3.190159e+00    2.786572e-03   1.898805e-03
  3.199899e+00    6.698612e-03   2.949122e-03
  3.209640e+00    4.921066e-03   2.531870e-03
  3.219381e+00    4.621752e-03   2.457642e-03
  3.229122e+00    0.000000e+00   0.000000e+00
  3.238863e+00    2.961057e-02   6.239463e-03
  3.248604e+00    4.867982e-02   8.011905e-03
  3.258345e+00    1.866749e-02   4.968458e-03
  3.268086e+00    7.215509e-03   3.093121e-03
  3.277827e+00    1.985510e-03   1.624749e-03
  3.287568e+00    3.809358e-03   2.253284e-03
  3.297309e+00    5.964068e-03   2.823089e-03
  3.307050e+00    0.000000e+00   0.000000e+00
  3.316791e+00    7.074067e-03   3.081949e-03
  3.326532e+00    1.825237e-02   4.956226e-03
  3.336273e+00    4.236812e-03   2.390664e-03
  3.346014e+00    6.591230e-03   2.962580e-03
  3.355755e+00    1.162684e-02   3.840663e-03
  3.365496e+00    6.656307e-04   9.072261e-04
  3.375236e+00    5.252627e-03   2.524692e-03
  3.384977e+00    1.427500e-02   4.130471e-03
  3.394718e+00    8.044780e-03   3.080432e-03
  3.404459e+00    1.261954e-02   3.835691e-03
  3.414200e+00    2.673148e-02   5.553173e-03
  3.423941e+00    1.037825e-02   3.443404e-03
  3.433682e+00    1.179825e-02   3.654772e-03
  3.443423e+00    1.949365e-02   4.678093e-03
  3.453164e+00    5.394530e-03   2.451073e-03
  3.462905e+00    4.801360e-03   2.303649e-03
  3.472646e+00    5.846949e-03   2.532903e-03
  3.482387e+00    1.649431e-03   1.340681e-03
  3.492128e+00    1.541652e-02   4.084880e-03
  3.501869e+00    3.141755e-02   5.812884e-03
  3.511610e+00    6.225686e-04   8.157547e-04
  3.521351e+00    0.000000e+00   0.000000e+00
  3.531092e+00    1.960005e-03   1.438746e-03
  3.540832e+00    1.145887e-02   3.468982e-03
  3.550573e+00    2.005034e-03   1.447079e-03
  3.560314e+00    7.046271e-03   2.705370e-03
  3.570055e+00    7.873420e-03   2.852206e-03
  3.579796e+00    1.316738e-03   1.163360e-03
  3.589537e+00    6.333142e-03   2.544978e-03
  3.599278e+00    5.286515e-03   2.319373e-03
  3.609019e+00    2.346060e-03   1.541384e-03
  3.618760e+00    4.806520e-03   2.200858e-03
  3.628501e+00    1.923633e-02   4.392656e-03
  3.638242e+00    1.279398e-02   3.574100e-03
  3.647983e+00    5.681746e-03   2.376280e-03
  3.657724e+00    8.897020e-03   2.967024e-03
  3.667465e+00    1.134144e-02   3.342377e-03
  3.677206e+00    1.315157e-02   3.591490e-03
  3.686947e+00    8.146658e-03   2.820530e-03
  3.696688e+00    2.131324e-02   4.552362e-03
  3.706428e+00    7.625575e-03   2.717384e-03
  3.716169e+00    1.595482e-02   3.922267e-03
  3.725910e+00    2.245681e-02   4.643838e-03
  3.735651e+00    1.257690e-02   3.468240e-03
  3.745392e+00    1.532119e-03   1.208122e-03
  3.755133e+00    9.386564e-04   9.436711e-04
  3.764874e+00    7.041143e-03   2.579543e-03
  3.774615e+00    8.016055e-03   2.747061e-03
  3.784356e+00    4.823366e-03   2.126811e-03
  3.794097e+00    0.000000e+00   0.000000e+00
  3.803838e+00    6.803550e-03   2.516239e-03
  3.813579e+00    6.887609e-03   2.527042e-03
  3.823320e+00    0.000000e+00   0.000000e+00
  3.833061e+00    8.008539e-03   2.714810e-03
  3.842802e+00    1.072973e-02   3.136633e-03
  3.852543e+00    1.708749e-02   3.951115e-03
  3.862284e+00    1.073550e-02   3.126165e-03
  3.872024e+00    6.509146e-04   7.684128e-04
  3.881765e+00    0.000000e+00   0.000000e+00
  3.891506e+00    0.000000e+00   0.000000e+00
  3.901247e+00    0.000000e+00   0.000000e+00
  3.910988e+00    0.000000e+00   0.000000e+00
  3.920729e+00    6.043488e-03   2.320855e-03
  3.930470e+00    7.091219e-03   2.509785e-03
  3.940211e+00    2.277703e-03   1.419940e-03
  3.949952e+00    4.244534e-03   1.935142e-03
  3.959693e+00    2.619673e-03   1.517660e-03
  3.969434e+00    5.643019e-03   2.223785e-03
  3.979175e+00    1.251878e-02   3.306686e-03
  3.988916e+00    5.047065e-03   2.096145e-03
  3.998657e+00    8.106679e-03   2.652163e-03
  4.008398e+00    1.489925e-02   3.589653e-03
  4.018139e+00    8.901580e-03   2.770126e-03
  4.027880e+00    6.401197e-03   2.345304e-03
  4.037621e+00    2.876644e-03   1.569630e-03
  4.047361e+00    7.228051e-03   2.484158e-03
  4.057102e+00    1.304571e-02   3.332027e-03
  4.066843e+00    8.359373e-03   2.663073e-03
  4.076584e+00    4.553587e-03   1.962360e-03
  4.086325e+00    1.673802e-03   1.187923e-03
  4.096066e+00    1.429767e-04   3.466271e-04
  4.105807e+00    1.036319e-02   2.946561e-03
  4.115548e+00    1.890269e-03   1.256560e-03
  4.125289e+00    1.234586e-05   1.013849e-04
  4.135030e+00    7.984640e-03   2.574501e-03
  4.144771e+00    9.046903e-03   2.736288e-03
  4.154512e+00    6.557619e-03   2.326054e-03
  4.164253e+00    9.124003e-04   8.663606e-04
  4.173994e+00    1.741785e-03   1.195166e-03
  4.183735e+00    1.325980e-02   3.292703e-03
  4.193476e+00    1.201968e-02   3.130329e-03
  4.203217e+00    8.038918e-03   2.556212e-03
  4.212957e+00    1.207924e-03   9.894261e-04
  4.222698e+00    6.689287e-03   2.324844e-03
  4.232439e+00    5.714827e-03   2.145786e-03
  4.242180e+00    8.143131e-03   2.557626e-03
  4.251921e+00    1.055508e-02   2.907647e-03
  4.261662e+00    8.725149e-03   2.639731e-03
  4.271403e+00    1.094721e-02   2.952621e-03
  4.281144e+00    7.297957e-03   2.407313e-03
  4.290885e+00    4.790857e-03   1.947636e-03
  4.300626e+00    8.618859e-03   2.608619e-03
  4.310367e+00    7.991617e-03   2.508353e-03
  4.320108e+00    3.304288e-03   1.610642e-03
  4.329849e+00    3.196028e-03   1.581724e-03
  4.339590e+00    1.190287e-02   3.048254e-03
  4.349331e+00    6.172420e-03   2.192057e-03
  4.359072e+00    2.418699e-03   1.370281e-03
  4.368813e+00    1.251431e-02   3.112471e-03
  4.378553e+00    1.790081e-02   3.717454e-03
  4.388294e+00    3.523274e-03   1.646984e-03
  4.398035e+00    3.834148e-03   1.715673e-03
  4.407776e+00    4.309854e-03   1.816511e-03
  4.417517e+00    1.235747e-02   3.071735e-03
  4.427258e+00    2.237566e-03   1.305342e-03
  4.436999e+00    3.987313e-03   1.740039e-03
  4.446740e+00    7.827746e-03   2.434825e-03
  4.456481e+00    4.546343e-03   1.853055e-03
  4.466222e+00    3.972067e-03   1.729715e-03
  4.475963e+00    2.168101e-03   1.276270e-03
  4.485704e+00    6.523165e-03   2.210657e-03
  4.495445e+00    2.116340e-02   3.976671e-03
  4.505186e+00    7.755738e-03   2.404172e-03
  4.514927e+00    6.591018e-03   2.213332e-03
  4.524668e+00    1.413049e-02   3.236501e-03
  4.534409e+00    8.968527e-03   2.575098e-03
  4.544149e+00    4.831316e-03   1.887487e-03
  4.553890e+00    3.261695e-03   1.548864e-03
  4.563631e+00    8.464374e-03   2.491797e-03
  4.573372e+00    6.869961e-03   2.241969e-03
  4.583113e+00    5.180942e-03   1.944469e-03
  4.592854e+00    1.576180e-04   3.387129e-04
  4.602595e+00    3.834918e-03   1.668561e-03
  4.612336e+00    4.358639e-03   1.776554e-03
  4.622077e+00    3.155344e-03   1.509631e-03
  4.631818e+00    8.277462e-03   2.441966e-03
  4.641559e+00    8.211420e-03   2.429063e-03
  4.651300e+00    5.084568e-03   1.909058e-03
  4.661041e+00    7.634873e-03   2.336304e-03
  4.670782e+00    4.727798e-03   1.836170e-03
  4.680523e+00    2.928364e-03   1.443280e-03
  4.690264e+00    7.972277e-03   2.378286e-03
  4.700005e+00    2.622449e-03   1.362413e-03
  4.709746e+00    1.603035e-03   1.063770e-03
  4.719486e+00    6.537914e-03   2.145717e-03
  4.729227e+00    8.304833e-03   2.415312e-03
  4.738968e+00    8.749120e-03   2.475956e-03
  4.748709e+00    1.411008e-02   3.140438e-03
  4.758450e+00    8.698286e-03   2.462703e-03
  4.768191e+00    8.277777e-03   2.399447e-03
  4.777932e+00    1.225986e-02   2.916464e-03
  4.787673e+00    1.006859e-02   2.639807e-03
  4.797414e+00    9.368769e-03   2.543244e-03
  4.807155e+00    5.800458e-03   1.998791e-03
  4.816896e+00    1.958275e-03   1.159881e-03
  4.826637e+00    1.483201e-02   3.188303e-03
  4.836378e+00    1.658378e-02   3.367250e-03
  4.846119e+00    9.571601e-03   2.555123e-03
  4.855860e+00    1.748542e-02   3.449223e-03
  4.865601e+00    9.395898e-03   2.525434e-03
  4.875342e+00    1.724976e-03   1.080796e-03
  4.885082e+00    2.761594e-03   1.365823e-03
  4.894823e+00    5.578715e-03   1.938918e-03
  4.904564e+00    1.690999e-02   3.371697e-03
  4.914305e+00    9.390753e-03   2.509680e-03
  4.924046e+00    6.483478e-04   6.586753e-04
  4.933787e+00    6.511451e-03   2.084750e-03
  4.943528e+00    1.682650e-02   3.347454e-03
  4.953269e+00    1.554334e-02   3.213520e-03
  4.963010e+00    5.898513e-03   1.977279e-03
  4.972751e+00    2.952976e-03   1.397344e-03
  4.982492e+00    2.164351e-03   1.197835e-03
  4.992233e+00    2.274815e-03   1.236672e-03
  5.001974e+00    9.115699e-03   2.484339e-03
  5.011715e+00    7.221251e-03   2.216349e-03
  5.021456e+00    4.345766e-03   1.722476e-03
  5.031197e+00    6.349182e-03   2.084963e-03
  5.040938e+00    5.508217e-03   1.944402e-03
  5.050678e+00    1.011490e-03   8.340726e-04
  5.060419e+00    3.410219e-03   1.532771e-03
  5.070160e+00    4.052452e-03   1.672154e-03
  5.079901e+00    4.224479e-03   1.708378e-03
  5.089642e+00    1.015773e-02   2.650584e-03
  5.099383e+00    8.105927e-03   2.369013e-03
  5.109124e+00    1.454530e-03   1.003958e-03
  5.118865e+00    3.683418e-03   1.598185e-03
  5.128606e+00    6.216357e-03   2.076912e-03
  5.138347e+00    5.572583e-03   1.966964e-03
  5.148088e+00    3.070200e-03   1.460337e-03
  5.157829e+00    3.496931e-03   1.558809e-03
  5.167570e+00    3.900702e-03   1.646650e-03
  5.177311e+00    6.169570e-03   2.071131e-03
  5.187052e+00    9.309093e-03   2.544351e-03
  5.196793e+00    2.295008e-03   1.263422e-03
  5.206534e+00    1.014620e-02   2.674354e-03
  5.216275e+00    3.778668e-03   1.644154e-03
  5.226015e+00    4.056863e-03   1.711071e-03
  5.235756e+00    1.006607e-02   2.705011e-03
  5.245497e+00    3.096005e-03   1.504831e-03
  5.255238e+00    4.091779e-03   1.734712e-03
  5.264979e+00    6.190327e-03   2.139030e-03
  5.274720e+00    9.678612e-03   2.680790e-03
  5.284461e+00    1.104874e-02   2.870524e-03
  5.294202e+00    6.477628e-03   2.202361e-03
  5.303943e+00    1.171487e-03   9.383828e-04
  5.313684e+00    4.217059e-03   1.783602e-03
  5.323425e+00    1.326237e-03   1.001998e-03
  5.333166e+00    5.718203e-03   2.083941e-03
  5.342907e+00    1.546828e-02   3.432950e-03
  5.352648e+00    1.839889e-03   1.185808e-03
  5.362389e+00    6.349158e-03   2.205961e-03
  5.372130e+00    1.375316e-02   3.251248e-03
  5.381871e+00    3.143725e-03   1.556662e-03
  5.391611e+00    5.184161e-03   2.001469e-03
  5.401352e+00    1.187432e-02   3.033057e-03
  5.411093e+00    1.550472e-02   3.470073e-03
  5.420834e+00    1.984733e-02   3.930882e-03
  5.430575e+00    7.249119e-03   2.378404e-03
  5.440316e+00    6.961182e-03   2.333359e-03
  5.450057e+00    6.550681e-03   2.265981e-03
  5.459798e+00    6.469555e-03   2.254341e-03
  5.469539e+00    1.272896e-02   3.165458e-03
  5.479280e+00    1.631775e-02   3.587683e-03
  5.489021e+00    1.292136e-02   3.195830e-03
  5.498762e+00    2.845585e-03   1.501200e-03
  5.508503e+00    1.395576e-03   1.052246e-03
  5.518244e+00    4.269914e-03   1.842366e-03
  5.527985e+00    9.690666e-04   8.784796e-04
  5.537726e+00    4.928274e-03   1.982855e-03
  5.547467e+00    4.588273e-03   1.914878e-03
  5.557207e+00    2.001892e-03   1.265986e-03
  5.566948e+00    3.621789e-03   1.704163e-03
  5.576689e+00    1.742227e-02   3.740723e-03
  5.586430e+00    1.736145e-02   3.737322e-03
  5.596171e+00    9.821506e-03   2.813134e-03
  5.605912e+00    1.299884e-02   3.238869e-03
  5.615653e+00    9.230965e-03   2.731505e-03
  5.625394e+00    1.704355e-02   3.714161e-03
  5.635135e+00    2.055558e-02   4.082021e-03
  5.644876e+00    1.669841e-02   3.681756e-03
  5.654617e+00    1.505752e-02   3.498640e-03
  5.664358e+00    2.054990e-02   4.089985e-03
  5.674099e+00    2.192462e-02   4.227645e-03
  5.683840e+00    4.292196e-03   1.871715e-03
  5.693581e+00    4.331614e-03   1.881612e-03
  5.703322e+00    0.000000e+00   0.000000e+00
  5.713063e+00    4.377055e-03   1.893824e-03
  5.722803e+00    1.866672e-03   1.237536e-03
  5.732544e+00    0.000000e+00   0.000000e+00
  5.742285e+00    0.000000e+00   0.000000e+00
  5.752026e+00    1.250946e-03   1.014843e-03
  5.761767e+00    8.062244e-03   2.577978e-03
  5.771508e+00    9.384505e-03   2.782941e-03
  5.781249e+00    6.489292e-03   2.315553e-03
  5.790990e+00    5.225000e-03   2.078314e-03
  5.800731e+00    8.509443e-03   2.651504e-03
  5.810472e+00    1.508278e-02   3.528446e-03
  5.820213e+00    1.304021e-02   3.279473e-03
  5.829954e+00    2.223429e-03   1.353569e-03
  5.839695e+00    0.000000e+00   0.000000e+00
  5.849436e+00    1.657334e-05   1.167511e-04
  5.859177e+00    4.451880e-03   1.912717e-03
  5.868918e+00    1.808800e-03   1.218689e-03
  5.878659e+00    4.631941e-03   1.949163e-03
  5.888400e+00    2.954369e-03   1.555980e-03
  5.898140e+00    4.942890e-03   2.011656e-03
  5.907881e+00    0.000000e+00   0.000000e+00
  5.917622e+00    1.026400e-02   2.896034e-03
  5.927363e+00    8.482585e-03   2.631601e-03
  5.937104e+00    0.000000e+00   0.000000e+00
  5.946845e+00    2.608727e-03   1.457835e-03
  5.956586e+00    3.624938e-03   1.717743e-03
  5.966327e+00    1.701040e-03   1.176044e-03
  5.976068e+00    4.521620e-03   1.916403e-03
  5.985809e+00    6.056752e-03   2.216202e-03
  5.995550e+00    9.552084e-03   2.781625e-03
  6.005291e+00    3.986676e-03   1.795982e-03
  6.015032e+00    9.820390e-03   2.817006e-03
  6.024773e+00    2.940354e-03   1.540592e-03
  6.034514e+00    4.840473e-03   1.975542e-03
  6.044255e+00    2.438837e-03   1.401399e-03
  6.053996e+00    3.735016e-03   1.733326e-03
  6.063736e+00    0.000000e+00   0.000000e+00
  6.073477e+00    3.437685e-03   1.660892e-03
  6.083218e+00    9.084420e-03   2.698409e-03
  6.092959e+00    5.936678e-03   2.180153e-03
  6.102700e+00    1.849136e-03   1.215960e-03
  6.112441e+00    5.810474e-03   2.154222e-03
  6.122182e+00    4.354218e-03   1.863738e-03
  6.131923e+00    2.549458e-04   4.507310e-04
  6.141664e+00    1.010165e-02   2.835426e-03
  6.151405e+00    2.132845e-03   1.302139e-03
  6.161146e+00    0.000000e+00   0.000000e+00
  6.170887e+00    0.000000e+00   0.000000e+00
  6.180628e+00    0.000000e+00   0.000000e+00
  6.190369e+00    5.368646e-03   2.065786e-03
  6.200110e+00    6.872713e-03   2.338178e-03
  6.209851e+00    0.000000e+00   0.000000e+00
  6.219592e+00    0.000000e+00   0.000000e+00
  6.229332e+00    0.000000e+00   0.000000e+00
  6.239073e+00    4.396547e-03   1.872207e-03
  6.248814e+00    3.278207e-03   1.617129e-03
  6.258555e+00    1.463041e-02   3.417209e-03
  6.268296e+00    9.706816e-03   2.784301e-03
  6.278037e+00    1.388234e-02   3.330422e-03
  6.287778e+00    1.784361e-02   3.776924e-03
  6.297519e+00    1.008614e-02   2.840481e-03
  6.307260e+00    9.239245e-05   2.719367e-04
  6.317001e+00    0.000000e+00   0.000000e+00
  6.326742e+00    0.000000e+00   0.000000e+00
  6.336483e+00    0.000000e+00   0.000000e+00
  6.346224e+00    0.000000e+00   0.000000e+00
  6.355965e+00    1.356439e-03   1.043144e-03
  6.365706e+00    6.821953e-03   2.340049e-03
  6.375447e+00    4.228398e-03   1.842840e-03
  6.385188e+00    0.000000e+00   0.000000e+00
  6.394929e+00    3.424873e-03   1.659179e-03
  6.404669e+00    1.053452e-02   2.910610e-03
  6.414410e+00    7.342869e-03   2.430676e-03
  6.424151e+00    1.731711e-02   3.733514e-03
  6.433892e+00    1.117435e-02   2.999709e-03
  6.443633e+00    6.248860e-03   2.243872e-03
  6.453374e+00    0.000000e+00   0.000000e+00
  6.463115e+00    2.116668e-03   1.306383e-03
  6.472856e+00    6.412979e-03   2.274451e-03
  6.482597e+00    9.072353e-03   2.705880e-03
  6.492338e+00    1.150645e-03   9.638865e-04
  6.502079e+00    1.014819e-02   2.862845e-03
  6.511820e+00    2.353763e-02   4.361132e-03
  6.521561e+00    1.305457e-02   3.248380e-03
  6.531302e+00    8.337035e-03   2.596525e-03
  6.541043e+00    6.712155e-03   2.330215e-03
  6.550784e+00    8.860070e-04   8.468182e-04
  6.560525e+00    0.000000e+00   0.000000e+00
  6.570265e+00    1.675832e-03   1.164952e-03
  6.580006e+00    7.361975e-03   2.442161e-03
  6.589747e+00    7.042687e-03   2.389147e-03
  6.599488e+00    2.801690e-03   1.507202e-03
  6.609229e+00    0.000000e+00   0.000000e+00
  6.618970e+00    0.000000e+00   0.000000e+00
  6.628711e+00    2.648819e-03   1.466136e-03
  6.638452e+00    3.663761e-03   1.724760e-03
  6.648193e+00    0.000000e+00   0.000000e+00
  6.657934e+00    9.224252e-04   8.656264e-04
  6.667675e+00    4.533317e-03   1.919435e-03
  6.677416e+00    1.227340e-03   9.989246e-04
  6.687157e+00    5.375147e-03   2.090688e-03
  6.696898e+00    1.821065e-03   1.217141e-03
  6.706639e+00    5.115503e-03   2.040181e-03
  6.716380e+00    7.859780e-04   7.998423e-04
  6.726121e+00    1.638310e-02   3.652183e-03
  6.735861e+00    9.873351e-03   2.835885e-03
  6.745602e+00    4.696458e-03   1.956076e-03
  6.755343e+00    0.000000e+00   0.000000e+00
  6.765084e+00    1.072406e-03   9.349389e-04
  6.774825e+00    5.069362e-03   2.033140e-03
  6.784566e+00    2.205967e-04   4.242120e-04
  6.794307e+00    0.000000e+00   0.000000e+00
  6.804048e+00    2.744616e-03   1.496567e-03
  6.813789e+00    3.630042e-03   1.721467e-03
  6.823530e+00    4.069127e-03   1.822740e-03
  6.833271e+00    1.078670e-02   2.968195e-03
  6.843012e+00    1.430928e-02   3.419031e-03
  6.852753e+00    1.547742e-02   3.556375e-03
  6.862494e+00    1.703541e-02   3.731524e-03
  6.872235e+00    7.197261e-03   2.425811e-03
  6.881976e+00    5.590204e-03   2.138085e-03
  6.891717e+00    8.606489e-03   2.653316e-03
  6.901457e+00    3.082351e-03   1.588022e-03
  6.911198e+00    7.430703e-03   2.465926e-03
  6.920939e+00    1.464947e-02   3.462938e-03
  6.930680e+00    4.745508e-04   6.233655e-04
  6.940421e+00    7.164221e-03   2.422129e-03
  6.950162e+00    1.360784e-02   3.338642e-03
  6.959903e+00    1.927787e-02   3.974138e-03
  6.969644e+00    1.323305e-02   3.293131e-03
  6.979385e+00    4.519989e-03   1.924780e-03
  6.989126e+00    0.000000e+00   0.000000e+00
  6.998867e+00    0.000000e+00   0.000000e+00
  7.008608e+00    0.000000e+00   0.000000e+00
  7.018349e+00    4.711952e-03   1.965979e-03
  7.028090e+00    1.308197e-02   3.276211e-03
  7.037831e+00    6.742164e-03   2.352217e-03
  7.047572e+00    8.746050e-03   2.679283e-03
  7.057313e+00    4.974522e-03   2.020935e-03
  7.067054e+00    4.199153e-04   5.872254e-04
  7.076794e+00    0.000000e+00   0.000000e+00
  7.086535e+00    0.000000e+00   0.000000e+00
  7.096276e+00    4.756127e-03   1.976673e-03
  7.106017e+00    1.707776e-03   1.184688e-03
  7.115758e+00    0.000000e+00   0.000000e+00
  7.125499e+00    2.766884e-03   1.508070e-03
  7.135240e+00    1.768357e-02   3.812795e-03
  7.144981e+00    1.085741e-02   2.987969e-03
  7.154722e+00    1.283065e-02   3.248362e-03
  7.164463e+00    3.061158e-03   1.586766e-03
  7.174204e+00    6.875815e-03   2.378312e-03
  7.183945e+00    4.230889e-03   1.865838e-03
  7.193686e+00    0.000000e+00   0.000000e+00
  7.203427e+00    1.367034e-02   3.354272e-03
  7.213168e+00    1.476975e-02   3.486649e-03
  7.222909e+00    7.739349e-03   2.524259e-03
  7.232650e+00    1.184341e-02   3.122705e-03
  7.242390e+00    3.952909e-03   1.804262e-03
  7.252131e+00    4.208904e-03   1.861838e-03
  7.261872e+00    2.297851e-03   1.375780e-03
  7.271613e+00    2.873656e-04   4.865362e-04
  7.281354e+00    4.680198e-03   1.963636e-03
  7.291095e+00    4.682810e-03   1.964372e-03
  7.300836e+00    8.826055e-03   2.697008e-03
  7.310577e+00    6.783099e-03   2.364515e-03
  7.320318e+00    8.119395e-04   8.181683e-04
  7.330059e+00    0.000000e+00   0.000000e+00
  7.339800e+00    4.609321e-03   1.949430e-03
  7.349541e+00    1.919694e-03   1.258234e-03
  7.359282e+00    2.706676e-03   1.494032e-03
  7.369023e+00    3.828063e-03   1.776896e-03
  7.378764e+00    0.000000e+00   0.000000e+00
  7.388505e+00    1.427858e-03   1.085251e-03
  7.398246e+00    4.770926e-03   1.984002e-03
  7.407986e+00    4.061340e-03   1.830617e-03
  7.417727e+00    1.307603e-02   3.284755e-03
  7.427468e+00    2.848571e-03   1.533413e-03
  7.437209e+00    0.000000e+00   0.000000e+00
  7.446950e+00    0.000000e+00   0.000000e+00
  7.456691e+00    0.000000e+00   0.000000e+00
  7.466432e+00    0.000000e+00   0.000000e+00
  7.476173e+00    1.337006e-03   1.050623e-03
  7.485914e+00    4.727622e-03   1.975816e-03
  7.495655e+00    3.952547e-03   1.806615e-03
  7.505396e+00    6.473533e-03   2.312187e-03
  7.515137e+00    1.177082e-02   3.117976e-03
  7.524878e+00    4.583112e-03   1.945705e-03
  7.534619e+00    1.095199e-02   3.007696e-03
  7.544360e+00    8.777445e-03   2.692937e-03
  7.554101e+00    9.948239e-03   2.866785e-03
  7.563842e+00    3.212240e-03   1.629190e-03
  7.573582e+00    1.688819e-03   1.181258e-03
  7.583323e+00    4.896969e-03   2.011557e-03
  7.593064e+00    1.409225e-04   3.412355e-04
  7.602805e+00    5.246716e-03   2.082308e-03
  7.612546e+00    8.607011e-03   2.666978e-03
  7.622287e+00    5.784476e-03   2.186700e-03
  7.632028e+00    0.000000e+00   0.000000e+00
  7.641769e+00    3.449842e-03   1.688582e-03
  7.651510e+00    3.150753e-03   1.613988e-03
  7.661251e+00    0.000000e+00   0.000000e+00
  7.670992e+00    6.252030e-04   7.188812e-04
  7.680733e+00    5.288107e-03   2.090994e-03
  7.690474e+00    1.994443e-03   1.284087e-03
  7.700215e+00    1.446209e-02   3.457980e-03
  7.709956e+00    1.415245e-02   3.420910e-03
  7.719697e+00    3.153597e-03   1.614924e-03
  7.729438e+00    2.505276e-03   1.439259e-03
  7.739179e+00    4.114493e-03   1.844638e-03
  7.748919e+00    0.000000e+00   0.000000e+00
  7.758660e+00    0.000000e+00   0.000000e+00
  7.768401e+00    0.000000e+00   0.000000e+00
  7.778142e+00    2.754608e-03   1.509336e-03
  7.787883e+00    3.875080e-03   1.790231e-03
  7.797624e+00    0.000000e+00   0.000000e+00
  7.807365e+00    3.872422e-03   1.789610e-03
  7.817106e+00    1.513993e-02   3.538579e-03
  7.826847e+00    1.088489e-02   3.000561e-03
  7.836588e+00    5.694859e-03   2.170411e-03
  7.846329e+00    6.442844e-03   2.308431e-03
  7.856070e+00    1.050004e-02   2.947087e-03
  7.865811e+00    5.811114e-04   6.933798e-04
  7.875552e+00    0.000000e+00   0.000000e+00
  7.885293e+00    6.829946e-03   2.376835e-03
  7.895034e+00    6.796949e-03   2.371273e-03
  7.904775e+00    8.668816e-03   2.677724e-03
  7.914515e+00    9.450904e-03   2.796086e-03
  7.924256e+00    1.521336e-03   1.121904e-03
  7.933997e+00    0.000000e+00   0.000000e+00
  7.943738e+00    0.000000e+00   0.000000e+00
  7.953479e+00    0.000000e+00   0.000000e+00
  7.963220e+00    4.100250e-03   1.841612e-03
  7.972961e+00    2.565949e-03   1.456980e-03
  7.982702e+00    8.397616e-03   2.635484e-03
  7.992443e+00    2.123812e-02   4.191468e-03
  8.002184e+00    6.395285e-03   2.300080e-03
  8.011925e+00    3.997021e-03   1.818299e-03
  8.021666e+00    4.731096e-03   1.978221e-03
  8.031407e+00    1.946270e-03   1.268899e-03
  8.041148e+00    0.000000e+00   0.000000e+00
  8.050889e+00    4.648387e-04   6.200185e-04
  8.060630e+00    5.753463e-03   2.181534e-03
  8.070371e+00    4.659576e-04   6.208352e-04
  8.080111e+00    0.000000e+00   0.000000e+00
  8.089852e+00    0.000000e+00   0.000000e+00
  8.099593e+00    0.000000e+00   0.000000e+00
  8.109334e+00    0.000000e+00   0.000000e+00
  8.119075e+00    0.000000e+00   0.000000e+00
  8.128816e+00    4.938621e-03   2.020900e-03
  8.138557e+00    3.825164e-03   1.778491e-03
  8.148298e+00    1.292399e-02   3.269182e-03
  8.158039e+00    5.110117e-03   2.055722e-03
  8.167780e+00    0.000000e+00   0.000000e+00
  8.177521e+00    0.000000e+00   0.000000e+00
  8.187262e+00    0.000000e+00   0.000000e+00
  8.197003e+00    0.000000e+00   0.000000e+00
  8.206744e+00    1.476835e-03   1.104903e-03
  8.216485e+00    5.234595e-03   2.080256e-03
  8.226226e+00    0.000000e+00   0.000000e+00
  8.235967e+00    0.000000e+00   0.000000e+00
  8.245708e+00    0.000000e+00   0.000000e+00
  8.255448e+00    0.000000e+00   0.000000e+00
  8.265189e+00    1.687133e-04   3.733960e-04
  8.274930e+00    5.005646e-03   2.033956e-03
  8.284671e+00    1.547772e-03   1.131033e-03
  8.294412e+00    5.283981e-04   6.607635e-04
  8.304153e+00    4.990282e-03   2.030727e-03
  8.313894e+00    1.208519e-03   9.993543e-04
  8.323635e+00    0.000000e+00   0.000000e+00
  8.333376e+00    0.000000e+00   0.000000e+00
  8.343117e+00    0.000000e+00   0.000000e+00
  8.352858e+00    0.000000e+00   0.000000e+00
  8.362599e+00    0.000000e+00   0.000000e+00
  8.372340e+00    6.318911e-03   2.477041e-03
  8.382081e+00    9.253202e-03   3.030232e-03
  8.391822e+00    7.886151e-03   2.825590e-03
  8.401563e+00    8.142322e-03   2.898499e-03
  8.411304e+00    1.190046e-03   1.118048e-03
  8.421044e+00    0.000000e+00   0.000000e+00
  8.430785e+00    0.000000e+00   0.000000e+00
  8.440526e+00    0.000000e+00   0.000000e+00
  8.450267e+00    0.000000e+00   0.000000e+00
  8.460008e+00    0.000000e+00   0.000000e+00
  8.469749e+00    0.000000e+00   0.000000e+00
  8.479490e+00    0.000000e+00   0.000000e+00
  8.489231e+00    0.000000e+00   0.000000e+00
  8.498972e+00    7.260416e-03   2.958290e-03
  8.508713e+00    1.310458e-02   4.002531e-03
  8.518454e+00    8.424544e-03   3.231076e-03
  8.528195e+00    1.302205e-03   1.279160e-03
  8.537936e+00    0.000000e+00   0.000000e+00
  8.547677e+00    8.613514e-03   3.333786e-03
  8.557418e+00    4.519991e-02   7.688189e-03
  8.567159e+00    7.251535e-02   9.802440e-03
  8.576900e+00    5.292533e-02   8.429383e-03
  8.586640e+00    5.628425e-03   2.767116e-03
  8.596381e+00    0.000000e+00   0.000000e+00
  8.606122e+00    0.000000e+00   0.000000e+00
  8.615863e+00    0.000000e+00   0.000000e+00
  8.625604e+00    0.000000e+00   0.000000e+00
  8.635345e+00    6.644827e-03   3.105344e-03
  8.645086e+00    5.362047e-03   2.807610e-03
  8.654827e+00    4.056697e-03   2.457572e-03
  8.664568e+00    8.309239e-03   3.540726e-03
  8.674309e+00    0.000000e+00   0.000000e+00
  8.684050e+00    5.074224e-03   2.802237e-03
  8.693791e+00    9.931839e-03   3.946349e-03
  8.703532e+00    1.059190e-02   4.102118e-03
  8.713273e+00    3.260848e-04   7.244493e-04
  8.723014e+00    0.000000e+00   0.000000e+00
  8.732755e+00    0.000000e+00   0.000000e+00
  8.742496e+00    1.679291e-03   1.676358e-03
  8.752236e+00    1.069788e-02   4.258973e-03
  8.761977e+00    1.620553e-03   1.668703e-03
  8.771718e+00    0.000000e+00   0.000000e+00
  8.781459e+00    0.000000e+00   0.000000e+00
  8.791200e+00    0.000000e+00   0.000000e+00
  8.800941e+00    0.000000e+00   0.000000e+00
  8.810682e+00    0.000000e+00   0.000000e+00
  8.820423e+00    0.000000e+00   0.000000e+00
  8.830164e+00    0.000000e+00   0.000000e+00
  8.839905e+00    0.000000e+00   0.000000e+00
  8.849646e+00    0.000000e+00   0.000000e+00
  8.859387e+00    9.362320e-04   1.357310e-03
  8.869128e+00    1.255510e-02   5.005683e-03
  8.878869e+00    3.079552e-03   2.497032e-03
  8.888610e+00    0.000000e+00   0.000000e+00
  8.898351e+00    0.000000e+00   0.000000e+00
  8.908092e+00    0.000000e+00   0.000000e+00
  8.917833e+00    0.000000e+00   0.000000e+00
  8.927573e+00    0.000000e+00   0.000000e+00
  8.937314e+00    0.000000e+00   0.000000e+00
  8.947055e+00    0.000000e+00   0.000000e+00
  8.956796e+00    0.000000e+00   0.000000e+00
  8.966537e+00    0.000000e+00   0.000000e+00
  8.976278e+00    0.000000e+00   0.000000e+00
  8.986019e+00    0.000000e+00   0.000000e+00
  8.995760e+00    0.000000e+00   0.000000e+00
  9.005501e+00    0.000000e+00   0.000000e+00
  9.015242e+00    0.000000e+00   0.000000e+00
  9.024983e+00    0.000000e+00   0.000000e+00
  9.034724e+00    0.000000e+00   0.000000e+00
  9.044465e+00    0.000000e+00   0.000000e+00
  9.054206e+00    5.674391e-03   3.894717e-03
  9.063947e+00    1.690936e-02   6.783047e-03
  9.073688e+00    9.773407e-06   1.644895e-04
  9.083429e+00    0.000000e+00   0.000000e+00
  9.093169e+00    0.000000e+00   0.000000e+00
  9.102910e+00    0.000000e+00   0.000000e+00
  9.112651e+00    1.613554e-02   6.927254e-03
  9.122392e+00    8.877044e-03   5.185926e-03
  9.132133e+00    0.000000e+00   0.000000e+00
  9.141874e+00    0.000000e+00   0.000000e+00
  9.151615e+00    0.000000e+00   0.000000e+00
  9.161356e+00    0.000000e+00   0.000000e+00
  9.171097e+00    0.000000e+00   0.000000e+00
  9.180838e+00    0.000000e+00   0.000000e+00
  9.190579e+00    0.000000e+00   0.000000e+00
  9.200320e+00    0.000000e+00   0.000000e+00
  9.210061e+00    0.000000e+00   0.000000e+00
  9.219802e+00    0.000000e+00   0.000000e+00
  9.229543e+00    0.000000e+00   0.000000e+00
  9.239284e+00    0.000000e+00   0.000000e+00
  9.249025e+00    0.000000e+00   0.000000e+00
  9.258765e+00    0.000000e+00   0.000000e+00
  9.268506e+00    0.000000e+00   0.000000e+00
  9.278247e+00    0.000000e+00   0.000000e+00
  9.287988e+00    1.495955e-02   8.099473e-03
  9.297729e+00    2.248709e-02   1.006128e-02
  9.307470e+00    4.043039e-03   4.321704e-03
  9.317211e+00    3.044191e-02   1.202526e-02
  9.326952e+00    5.517514e-03   5.191094e-03
  9.336693e+00    0.000000e+00   0.000000e+00
  9.346434e+00    1.520999e-02   8.870276e-03
  9.356175e+00    2.924250e-02   1.248771e-02
  9.365916e+00    0.000000e+00   0.000000e+00
  9.375657e+00    0.000000e+00   0.000000e+00
  9.385398e+00    0.000000e+00   0.000000e+00
  9.395139e+00    0.000000e+00   0.000000e+00
  9.404880e+00    0.000000e+00   0.000000e+00
  9.414621e+00    0.000000e+00   0.000000e+00
  9.424362e+00    9.359588e-03   7.959508e-03
  9.434102e+00    4.482462e-02   1.775754e-02
  9.443843e+00    5.075471e-03   6.097850e-03
  9.453584e+00    0.000000e+00   0.000000e+00
  9.463325e+00    4.933725e-02   1.984809e-02
  9.473066e+00    1.903110e-02   1.260957e-02
  9.482807e+00    0.000000e+00   0.000000e+00
  9.492548e+00    0.000000e+00   0.000000e+00
  9.502289e+00    0.000000e+00   0.000000e+00
  9.512030e+00    0.000000e+00   0.000000e+00
  9.521771e+00    0.000000e+00   0.000000e+00
  9.531512e+00    0.000000e+00   0.000000e+00
  9.541253e+00    0.000000e+00   0.000000e+00
  9.550994e+00    0.000000e+00   0.000000e+00
  9.560735e+00    0.000000e+00   0.000000e+00
  9.570476e+00    0.000000e+00   0.000000e+00
  9.580217e+00    0.000000e+00   0.000000e+00
  9.589958e+00    0.000000e+00   0.000000e+00
  9.599698e+00    0.000000e+00   0.000000e+00
  9.609439e+00    0.000000e+00   0.000000e+00
  9.619180e+00    0.000000e+00   0.000000e+00
  9.628921e+00    0.000000e+00   0.000000e+00
  9.638662e+00    0.000000e+00   0.000000e+00
  9.648403e+00    0.000000e+00   0.000000e+00
  9.658144e+00    0.000000e+00   0.000000e+00
  9.667885e+00    0.000000e+00   0.000000e+00
  9.677626e+00    0.000000e+00   0.000000e+00
  9.687367e+00    0.000000e+00   0.000000e+00
  9.697108e+00    0.000000e+00   0.000000e+00
  9.706849e+00    0.000000e+00   0.000000e+00
  9.716590e+00    0.000000e+00   0.000000e+00
  9.726331e+00    0.000000e+00   0.000000e+00
  9.736072e+00    0.000000e+00   0.000000e+00
